Baseline 100%T,,R1 Sulfuric acid + Ferric Sulfate,,R2 Sulfuric acid + Ferric Sulfate,,R3 Sulfuric acid + Ferric Sulfate,,
Wavelength (nm),Abs,Wavelength (nm),Abs,Wavelength (nm),Abs,Wavelength (nm),Abs,
799.9872437,0.1319669038,799.9872437,0.3377423584,799.9872437,0.2360348552,799.9872437,0.192844227,
799.012146,0.1327950358,799.012146,0.3365641534,799.012146,0.234629795,799.012146,0.1913361996,
798.0018921,0.1330628544,798.0018921,0.3382798433,798.0018921,0.2332569212,798.0018921,0.1901231557,
796.9911499,0.1326120049,796.9911499,0.33758834,796.9911499,0.2340723872,796.9911499,0.1907784343,
796.0148926,0.132605508,796.0148926,0.3374718428,796.0148926,0.2335476279,796.0148926,0.1904334724,
795.0033569,0.1327107996,795.0033569,0.3364872634,795.0033569,0.2326979786,795.0033569,0.1894572675,
793.9915161,0.1330718547,793.9915161,0.3363807201,793.9915161,0.2315226644,793.9915161,0.1886326522,
793.0140991,0.1324280053,793.0140991,0.3365460336,793.0140991,0.2319825888,793.0140991,0.1896539927,
792.0014648,0.1332748234,792.0014648,0.3363136649,792.0014648,0.2302607745,792.0014648,0.1885655969,
790.9882813,0.1327319592,790.9882813,0.3362895846,790.9882813,0.2308132946,790.9882813,0.1882301271,
790.0098267,0.1330593377,790.0098267,0.3354389966,790.0098267,0.2297621518,790.0098267,0.1885156482,
788.9958496,0.1329819113,788.9958496,0.3352822363,788.9958496,0.2289839536,788.9958496,0.1868801415,
788.0165405,0.1328751743,788.0165405,0.3347387612,788.0165405,0.229423672,788.0165405,0.1870066524,
787.0018921,0.1326440871,787.0018921,0.3344503939,787.0018921,0.2284326553,787.0018921,0.186031878,
785.9868164,0.1322514415,785.9868164,0.3344789743,785.9868164,0.228401199,785.9868164,0.1873521656,
785.0064087,0.1329345852,785.0064087,0.3338162005,785.0064087,0.2273619175,785.0064087,0.1869083941,
783.9905396,0.1332411468,783.9905396,0.3326664567,783.9905396,0.2264716774,783.9905396,0.1843171865,
783.0093994,0.1333337873,783.0093994,0.3331522346,783.0093994,0.2258897722,783.0093994,0.1832751781,
781.9927368,0.1327129453,781.9927368,0.3327018619,781.9927368,0.2249305397,781.9927368,0.1842557788,
781.0107422,0.1330891252,781.0107422,0.332346797,781.0107422,0.2253794372,781.0107422,0.183414191,
779.9934082,0.132840842,779.9934082,0.3313525021,779.9934082,0.2237970084,779.9934082,0.1823093593,
779.0106812,0.1331210285,779.0106812,0.3301236033,779.0106812,0.2233602554,779.0106812,0.1820430458,
777.9924927,0.1336308867,777.9924927,0.3296457827,777.9924927,0.2226918787,777.9924927,0.1805076301,
777.0090332,0.1332835108,777.0090332,0.3293684125,777.0090332,0.2217366546,777.0090332,0.1807784438,
775.9901123,0.1333435029,775.9901123,0.329282254,775.9901123,0.2209513336,775.9901123,0.1802946031,
775.0058594,0.1334712952,775.0058594,0.3267919421,775.0058594,0.2193282992,775.0058594,0.1788594723,
773.986145,0.1334095597,773.986145,0.3281448781,773.986145,0.2192098349,773.986145,0.1785791367,
773.0012207,0.1339923888,773.0012207,0.3267177343,773.0012207,0.2185596824,773.0012207,0.1782404631,
772.0159302,0.133731246,772.0159302,0.3253018856,772.0159302,0.2175063491,772.0159302,0.1772366911,
770.9950562,0.1343908012,770.9950562,0.324546665,770.9950562,0.2155647725,770.9950562,0.1757840216,
770.0089722,0.1341827661,770.0089722,0.3243052363,770.0089722,0.2147999853,770.0089722,0.1746912748,
768.9873047,0.133278653,768.9873047,0.3239623308,768.9873047,0.2160105258,768.9873047,0.1749909818,
768.0005493,0.1336055249,768.0005493,0.3226545453,768.0005493,0.2147953659,768.0005493,0.1738446057,
767.0133667,0.1338213235,767.0133667,0.3223253787,767.0133667,0.213468045,767.0133667,0.1723433435,
765.9906006,0.1338866055,765.9906006,0.320779264,765.9906006,0.211956501,765.9906006,0.1717168689,
765.0027466,0.1336158812,765.0027466,0.3202972412,765.0027466,0.2114343494,765.0027466,0.1710268855,
764.0145264,0.1338851899,764.0145264,0.3195706606,764.0145264,0.2099270672,764.0145264,0.1704528034,
762.9906006,0.1336018741,762.9906006,0.3199375868,762.9906006,0.2100926489,762.9906006,0.1700053215,
762.0016479,0.1338384002,762.0016479,0.3186857104,762.0016479,0.2083961219,762.0016479,0.1688741148,
761.0122681,0.1338617653,761.0122681,0.3178015351,761.0122681,0.2073075026,761.0122681,0.1679229885,
759.9872437,0.1335140914,759.9872437,0.3176323175,759.9872437,0.2071431577,759.9872437,0.1672947705,
758.9971924,0.1336688846,758.9971924,0.3154774904,758.9971924,0.2050329596,758.9971924,0.1660491228,
758.0067749,0.1330575794,758.0067749,0.3157331347,758.0067749,0.2053377926,758.0067749,0.1661317945,
757.0159302,0.1335405409,757.0159302,0.3130878508,757.0159302,0.2033882588,757.0159302,0.1648775488,
755.9893799,0.133291319,755.9893799,0.3130258322,755.9893799,0.2025914341,755.9893799,0.1631251276,
754.9978638,0.1330535412,754.9978638,0.3126749396,754.9978638,0.2010970712,754.9978638,0.1631525606,
754.0059814,0.1334267259,754.0059814,0.3114257753,754.0059814,0.2003120631,754.0059814,0.1607812047,
753.0137939,0.1329449564,753.0137939,0.3105174303,753.0137939,0.1999742687,753.0137939,0.1605322212,
751.9857178,0.1325970441,751.9857178,0.3102217615,751.9857178,0.1981428713,751.9857178,0.1600969136,
750.9927979,0.1327084601,750.9927979,0.3083091974,750.9927979,0.1969709247,750.9927979,0.1584900469,
749.9995117,0.1324167699,749.9995117,0.3081408739,749.9995117,0.1959910989,749.9995117,0.1583032012,
749.0057983,0.1321265101,749.0057983,0.3068726659,749.0057983,0.1953250021,749.0057983,0.1576797813,
748.0118408,0.1321348548,748.0118408,0.304379642,748.0118408,0.19421947,748.0118408,0.1559056491,
747.0174561,0.1316074431,747.0174561,0.3047996759,747.0174561,0.1933930814,747.0174561,0.1554156691,
745.9871826,0.1316339672,745.9871826,0.303681761,745.9871826,0.1914634556,745.9871826,0.1540382653,
744.9921265,0.1311863661,744.9921265,0.3020552993,744.9921265,0.1912579834,744.9921265,0.1529402137,
743.9967041,0.1308076233,743.9967041,0.3023326099,743.9967041,0.189379707,743.9967041,0.1519224942,
743.0008545,0.1301877052,743.0008545,0.3012727499,743.0008545,0.1879178733,743.0008545,0.1510390788,
742.0047607,0.1299129277,742.0047607,0.3005756736,742.0047607,0.1871730834,742.0047607,0.1501182467,
741.0083008,0.1297932267,741.0083008,0.2991213799,741.0083008,0.1863640845,741.0083008,0.1490675807,
740.0114746,0.1292488128,740.0114746,0.297863394,740.0114746,0.1851669848,740.0114746,0.1479327679,
739.0142212,0.1291020811,739.0142212,0.2963941693,739.0142212,0.1830908209,739.0142212,0.1468849778,
738.0167236,0.1284259111,738.0167236,0.2958371639,738.0167236,0.1821405292,738.0167236,0.1455643028,
736.9832153,0.1278771162,736.9832153,0.2949323952,736.9832153,0.1811406761,736.9832153,0.1444009542,
735.9849243,0.1271824092,735.9849243,0.2935339212,735.9849243,0.1797768325,735.9849243,0.1431919634,
734.9863281,0.1259759963,734.9863281,0.2929773331,734.9863281,0.17879273,734.9863281,0.142557919,
733.9874268,0.1258356571,733.9874268,0.2911838293,733.9874268,0.1768079251,733.9874268,0.1411668658,
732.9881592,0.1248704344,732.9881592,0.2903641164,732.9881592,0.1761059165,732.9881592,0.1402001977,
731.9885254,0.1239325255,731.9885254,0.2893095315,731.9885254,0.1750431657,731.9885254,0.1394346654,
730.9885254,0.1226624325,730.9885254,0.2889411449,730.9885254,0.1737455726,730.9885254,0.1386563778,
729.9882202,0.1219282001,729.9882202,0.2873490155,729.9882202,0.1727208048,729.9882202,0.137046501,
728.9874878,0.1210763827,728.9874878,0.2867804468,728.9874878,0.1710665971,728.9874878,0.1361387521,
727.9865723,0.1203521267,727.9865723,0.2849277258,727.9865723,0.169901073,727.9865723,0.1349185705,
726.9852295,0.1193062887,726.9852295,0.2844527662,726.9852295,0.1686483175,726.9852295,0.1339184791,
725.9835205,0.118928887,725.9835205,0.2830868959,725.9835205,0.166944012,725.9835205,0.1324817985,
725.0172729,0.1177980825,725.0172729,0.2823401988,725.0172729,0.166258797,725.0172729,0.13185516,
724.0148926,0.1170810014,724.0148926,0.281594336,724.0148926,0.165113017,724.0148926,0.1304059178,
723.012207,0.1164570227,723.012207,0.2805846632,723.012207,0.1637828797,723.012207,0.1292690933,
722.0090942,0.1158719286,722.0090942,0.2793278992,722.0090942,0.1620913297,722.0090942,0.1279277205,
721.0057373,0.1149916127,721.0057373,0.2783344388,721.0057373,0.1605729461,721.0057373,0.1267532557,
720.0020142,0.1142226458,720.0020142,0.2769043446,720.0020142,0.1591114998,720.0020142,0.1254365444,
718.9979248,0.1137230843,718.9979248,0.275452137,718.9979248,0.1578309834,718.9979248,0.1242587119,
717.9935303,0.1129732355,717.9935303,0.274104178,717.9935303,0.1562888622,717.9935303,0.1228609309,
716.9887695,0.1123666987,716.9887695,0.2729378641,716.9887695,0.1550235301,716.9887695,0.1216928884,
715.9837036,0.1115438193,715.9837036,0.271838516,715.9837036,0.1536504477,715.9837036,0.1203511357,
715.0141602,0.1110550836,715.0141602,0.2704167962,715.0141602,0.1521288306,715.0141602,0.1190818921,
714.0083618,0.1103046909,714.0083618,0.2691857517,714.0083618,0.1507808566,714.0083618,0.1178319678,
713.0023193,0.1097696126,713.0023193,0.2678839266,713.0023193,0.1493327022,713.0023193,0.1165292934,
711.9959106,0.1091620699,711.9959106,0.2669041157,711.9959106,0.1479694545,711.9959106,0.1151308194,
710.9891357,0.1088035852,710.9891357,0.265327245,710.9891357,0.1460074633,710.9891357,0.1135295555,
709.9820557,0.1083385199,709.9820557,0.2641351223,709.9820557,0.1449853182,709.9820557,0.1124425158,
709.0106201,0.1080770567,709.0106201,0.2629393041,709.0106201,0.1438397169,709.0106201,0.1110405102,
708.0028687,0.1079862639,708.0028687,0.2615120411,708.0028687,0.1421105117,708.0028687,0.1097674444,
706.9946899,0.1078813225,706.9946899,0.2602039576,706.9946899,0.1405394524,706.9946899,0.1085541397,
705.9863281,0.1079060733,705.9863281,0.258595854,705.9863281,0.139115572,705.9863281,0.1072576866,
705.0135498,0.1080708802,705.0135498,0.2574955225,705.0135498,0.1379388571,705.0135498,0.105850026,
704.0045166,0.1082792953,704.0045166,0.2565225661,704.0045166,0.1364056617,704.0045166,0.1047896594,
702.9950562,0.1084623188,702.9950562,0.2554215789,702.9950562,0.1352640986,702.9950562,0.1037035361,
701.9853516,0.1088626906,701.9853516,0.25424999,701.9853516,0.1340016574,701.9853516,0.1021546572,
701.0112915,0.109518677,701.0112915,0.2526713014,701.0112915,0.1326232851,701.0112915,0.1010466143,
700.0009766,0.1102445275,700.0009766,0.2511302829,700.0009766,0.1310988367,700.0009766,0.09938651323,
698.9902344,0.1106882915,698.9902344,0.250488162,698.9902344,0.1299660653,698.9902344,0.09882441163,
698.0152588,0.1115358546,698.0152588,0.2489598095,698.0152588,0.1285065562,698.0152588,0.09746224433,
697.0039673,0.1123571396,697.0039673,0.2479770333,697.0039673,0.127055034,697.0039673,0.09615702182,
695.9921875,0.1130193397,695.9921875,0.2471478581,695.9921875,0.1253865212,695.9921875,0.09473759681,
695.0163574,0.1135356426,695.0163574,0.2458534986,695.0163574,0.1241301894,695.0163574,0.09396696091,
694.0039673,0.1142996922,694.0039673,0.2450138628,694.0039673,0.1228657737,694.0039673,0.09297461808,
692.991333,0.1155116856,692.991333,0.2431952953,692.991333,0.1212019101,692.991333,0.09129928797,
692.0145264,0.1159801781,692.0145264,0.2428278029,692.0145264,0.1202701703,692.0145264,0.09011957049,
691.0011597,0.1168306842,691.0011597,0.2413194776,691.0011597,0.1187369078,691.0011597,0.08902878314,
689.9874878,0.1179054156,689.9874878,0.239705056,689.9874878,0.1171223223,689.9874878,0.08741595596,
689.0097656,0.1185692027,689.0097656,0.2388885915,689.0097656,0.1156296432,689.0097656,0.08616556972,
687.9954834,0.1192894951,687.9954834,0.2381751239,687.9954834,0.1143927574,687.9954834,0.08527053148,
687.0170898,0.1198641285,687.0170898,0.237344861,687.0170898,0.1132333651,687.0170898,0.08427829295,
686.0022583,0.1206090599,686.0022583,0.236087814,686.0022583,0.1120120957,686.0022583,0.08329674602,
684.9869385,0.1213207692,684.9869385,0.2354620397,684.9869385,0.1106120124,684.9869385,0.08193655312,
684.0076904,0.1219133958,684.0076904,0.2340075672,684.0076904,0.1093097031,684.0076904,0.08085215092,
682.9918213,0.1228186786,682.9918213,0.2330070138,682.9918213,0.1075823605,682.9918213,0.07920275629,
682.0119019,0.1234968305,682.0119019,0.2317733467,682.0119019,0.1066784263,682.0119019,0.07822342217,
680.9954224,0.1239667535,680.9954224,0.2310501337,680.9954224,0.1056959331,680.9954224,0.07703284919,
680.0148926,0.1246914789,680.0148926,0.2304162532,680.0148926,0.1047090068,680.0148926,0.0760653615,
678.9977417,0.1251731515,678.9977417,0.2290637791,678.9977417,0.1030412987,678.9977417,0.07517056912,
678.0166016,0.1258257031,678.0166016,0.2282992452,678.0166016,0.1017797962,678.0166016,0.07396152616,
676.9989014,0.126445666,676.9989014,0.2271445394,676.9989014,0.1001569852,676.9989014,0.07261631638,
676.0170898,0.1267726421,676.0170898,0.2265108377,676.0170898,0.09951575845,676.0170898,0.07159212232,
674.9987183,0.1274165511,674.9987183,0.2249753773,674.9987183,0.09796954691,674.9987183,0.07048091292,
674.0164185,0.1279320568,674.0164185,0.2245230377,674.0164185,0.09711872786,674.0164185,0.06932060421,
672.9973145,0.1282652617,672.9973145,0.2235736549,672.9973145,0.09561676532,672.9973145,0.06873454154,
672.0144653,0.1290456653,672.0144653,0.2223444283,672.0144653,0.09438599646,672.0144653,0.06751228869,
670.994812,0.12940301,670.994812,0.2213015407,670.994812,0.09337244928,670.994812,0.0665082559,
670.0112915,0.1299594343,670.0112915,0.2204516232,670.0112915,0.09179668128,670.0112915,0.06546870619,
668.9909668,0.1305397749,668.9909668,0.2192924321,668.9909668,0.090851143,668.9909668,0.06435963511,
668.0068359,0.1303438842,668.0068359,0.2186731994,668.0068359,0.08990039676,668.0068359,0.06354919821,
666.9859619,0.1297725588,666.9859619,0.2179804444,666.9859619,0.08918794245,666.9859619,0.06243100017,
666.0012207,0.1297705024,666.0012207,0.2169300914,666.0012207,0.08786186576,666.0012207,0.06159452349,
665.0162354,0.129755035,665.0162354,0.215289861,665.0162354,0.08660924435,665.0162354,0.06054501981,
663.9943848,0.1296057403,663.9943848,0.2148980945,663.9943848,0.0858040303,663.9943848,0.05979296193,
663.0087891,0.1297731251,663.0087891,0.2140434384,663.0087891,0.08436989039,663.0087891,0.05851047859,
661.9863281,0.1297865212,661.9863281,0.2131390423,661.9863281,0.0832233727,661.9863281,0.05762124062,
661.0001831,0.1297309995,661.0001831,0.2124592811,661.0001831,0.08245961368,661.0001831,0.05673924834,
660.0136108,0.1296850741,660.0136108,0.2114425749,660.0136108,0.08150324225,660.0136108,0.05604675785,
658.9902954,0.130100444,658.9902954,0.2108047605,658.9902954,0.08021963388,658.9902954,0.0551234521,
658.0032349,0.1295835525,658.0032349,0.2100085467,658.0032349,0.07978762686,658.0032349,0.05486132205,
657.0158691,0.1296728998,657.0158691,0.2099938542,657.0158691,0.07884537429,657.0158691,0.05386064574,
655.9915771,0.1297589839,655.9915771,0.2088188231,655.9915771,0.07795716822,655.9915771,0.05282592773,
655.0036621,0.1298553497,655.0036621,0.2082163841,655.0036621,0.07676278055,655.0036621,0.05173432454,
654.0153809,0.1299442351,654.0153809,0.2076039612,654.0153809,0.07584320754,654.0153809,0.05087495968,
652.9902344,0.1299481839,652.9902344,0.2071058601,652.9902344,0.07485306263,652.9902344,0.05073430017,
652.0014038,0.1301105022,652.0014038,0.2065457851,652.0014038,0.07394050062,652.0014038,0.04983542114,
651.0122681,0.1301131248,651.0122681,0.20591712,651.0122681,0.07318346947,651.0122681,0.04902205244,
649.9862061,0.1302572638,649.9862061,0.2050161064,649.9862061,0.07207921147,649.9862061,0.0483610481,
648.996521,0.1303461194,648.996521,0.2047490329,648.996521,0.07119365036,648.996521,0.04755938798,
648.0065308,0.130155623,648.0065308,0.2043854296,648.0065308,0.07114552706,648.0065308,0.04730218649,
647.0162354,0.1304053515,647.0162354,0.2032970488,647.0162354,0.07011609524,647.0162354,0.04592567682,
645.9890137,0.130221203,645.9890137,0.2029874474,645.9890137,0.06963208318,645.9890137,0.04592844099,
644.9981079,0.1304819733,644.9981079,0.2022878975,644.9981079,0.06879100949,644.9981079,0.04539111257,
644.007019,0.1306804121,644.007019,0.2014862895,644.007019,0.06809918582,644.007019,0.04463374987,
643.015564,0.1305393428,643.015564,0.2009239793,643.015564,0.06751265377,643.015564,0.04450613633,
641.9871826,0.1307052076,641.9871826,0.1998640448,641.9871826,0.06633083522,641.9871826,0.04350397363,
640.9951782,0.130795002,640.9951782,0.1998539567,640.9951782,0.06592142582,640.9951782,0.04250531644,
640.0028687,0.1308674514,640.0028687,0.199143827,640.0028687,0.0650556013,640.0028687,0.04210392386,
639.010376,0.1308266968,639.010376,0.1987863481,639.010376,0.06499507278,639.010376,0.04188995063,
638.0175171,0.1308940798,638.0175171,0.1979419738,638.0175171,0.06424082816,638.0175171,0.04145589098,
636.9876099,0.131229952,636.9876099,0.1974694729,636.9876099,0.0631262064,636.9876099,0.0406293422,
635.9942017,0.1308914572,635.9942017,0.1972860098,635.9942017,0.06337549537,635.9942017,0.04045800492,
635.0005493,0.1311770827,635.0005493,0.196267724,635.0005493,0.06255358458,635.0005493,0.03989632428,
634.0065918,0.1312918663,634.0065918,0.1961709261,634.0065918,0.06181830913,634.0065918,0.03958000988,
633.0123291,0.1312987059,633.0123291,0.1959013492,633.0123291,0.0612055324,633.0123291,0.03907616436,
632.0178223,0.1315251887,632.0178223,0.1953303069,632.0178223,0.06068026274,632.0178223,0.03851340711,
630.9862061,0.1313372999,630.9862061,0.195431307,630.9862061,0.06058334932,630.9862061,0.03831643611,
629.9910278,0.1313618571,629.9910278,0.1955095828,629.9910278,0.06007146463,629.9910278,0.03810245916,
628.9957275,0.1316363513,628.9957275,0.1950447559,628.9957275,0.05970999599,628.9957275,0.03716434911,
628.0001221,0.1319039464,628.0001221,0.1949484646,628.0001221,0.05882846937,628.0001221,0.03672097996,
627.0042114,0.1318844855,627.0042114,0.1948470175,627.0042114,0.05875736475,627.0042114,0.036726024,
626.0079346,0.132043004,626.0079346,0.1946288794,626.0079346,0.05794955418,626.0079346,0.03628068417,
625.0115356,0.1321041882,625.0115356,0.1951736808,625.0115356,0.05808325112,625.0115356,0.03616005927,
624.0148315,0.1321471781,624.0148315,0.1950882375,624.0148315,0.05745497346,624.0148315,0.03567229956,
623.0177612,0.1321393847,623.0177612,0.195387423,623.0177612,0.05738586932,623.0177612,0.03555822,
621.9835815,0.1322363913,621.9835815,0.1953416765,621.9835815,0.0568208769,621.9835815,0.03519710153,
620.9860229,0.1325081438,620.9860229,0.1953345686,620.9860229,0.05632899702,620.9860229,0.03480492905,
619.9880981,0.1328198463,619.9880981,0.1954707354,619.9880981,0.0558542423,619.9880981,0.03442459553,
618.9900513,0.1327829212,618.9900513,0.1955753267,618.9900513,0.05568715185,618.9900513,0.03451519832,
617.9916992,0.1330193281,617.9916992,0.1957030743,617.9916992,0.05563574657,617.9916992,0.03408132866,
616.993042,0.1328136027,616.993042,0.1960385442,616.993042,0.05534357578,616.993042,0.03419734538,
615.9940796,0.1328860372,615.9940796,0.1965521723,615.9940796,0.05509118736,615.9940796,0.03394384682,
614.9949341,0.1331575364,614.9949341,0.1963923275,614.9949341,0.05474640802,614.9949341,0.03362577036,
613.9954224,0.133242771,613.9954224,0.19673118,613.9954224,0.0544953607,613.9954224,0.03328908607,
612.9956665,0.1331321448,612.9956665,0.1964156032,612.9956665,0.05469957367,612.9956665,0.03340659663,
611.9957275,0.1332604289,611.9957275,0.1969666034,611.9957275,0.05447921902,611.9957275,0.03300701454,
610.9953613,0.133545354,610.9953613,0.197105065,610.9953613,0.05420571938,610.9953613,0.03314433992,
609.9949341,0.1335968375,609.9949341,0.1972399801,609.9949341,0.05394214764,609.9949341,0.03297774494,
608.9940796,0.133551985,608.9940796,0.1973138154,608.9940796,0.05389337987,608.9940796,0.03312114999,
607.992981,0.1336571872,607.992981,0.197390765,607.992981,0.05400894582,607.992981,0.03315610066,
606.9916382,0.1338060647,606.9916382,0.1980735213,606.9916382,0.05364399776,606.9916382,0.03300020099,
605.9900513,0.1337698549,605.9900513,0.1981077492,605.9900513,0.05345907435,605.9900513,0.03263293952,
604.9881592,0.1338801533,604.9881592,0.1983407289,604.9881592,0.05353461578,604.9881592,0.03291926533,
603.9859619,0.1340367496,603.9859619,0.1984090656,603.9859619,0.0535483174,603.9859619,0.03276596218,
602.9836426,0.133911863,602.9836426,0.1987413913,602.9836426,0.05352307856,602.9836426,0.03289656341,
602.0180664,0.1339061558,602.0180664,0.199093014,602.0180664,0.05343884602,602.0180664,0.03305561468,
601.0151367,0.1336655021,601.0151367,0.199773252,601.0151367,0.05350834876,601.0151367,0.03304706886,
600.0119629,0.1339204311,600.0119629,0.19991979,600.0119629,0.05344341323,600.0119629,0.03295397758,
599.0085449,0.133752808,599.0085449,0.2003483921,599.0085449,0.05330794305,599.0085449,0.03299754485,
598.0047607,0.1335861236,598.0047607,0.2011932433,598.0047607,0.05362384766,598.0047607,0.03321874887,
597.0007935,0.1337877065,597.0007935,0.2015926838,597.0007935,0.05357678235,597.0007935,0.0330644697,
595.996582,0.1337550879,595.996582,0.2015430182,595.996582,0.05361584947,595.996582,0.03315735981,
594.9921265,0.1336448938,594.9921265,0.2021891326,594.9921265,0.0535512194,594.9921265,0.03317974135,
593.9873047,0.1336205006,593.9873047,0.2025582045,593.9873047,0.05359476432,593.9873047,0.03333120793,
592.9822998,0.1338117421,592.9822998,0.2028593272,592.9822998,0.05356345698,592.9822998,0.03321318701,
592.0142212,0.1335934848,592.0142212,0.2036975175,592.0142212,0.05359373987,592.0142212,0.03348723054,
591.0087891,0.1337129325,591.0087891,0.2038463354,591.0087891,0.05339487642,591.0087891,0.03351524845,
590.0029297,0.1336660981,590.0029297,0.2042280585,590.0029297,0.05369343981,590.0029297,0.03380957246,
588.9968262,0.1335012168,588.9968262,0.2045082748,588.9968262,0.05394458026,588.9968262,0.03388476372,
587.9905396,0.1336123943,587.9905396,0.2045004517,587.9905396,0.05396140367,587.9905396,0.03360037506,
586.9840088,0.1335641593,586.9840088,0.2046539783,586.9840088,0.05372038856,586.9840088,0.03403645009,
586.0144653,0.1335594803,586.0144653,0.2051376849,586.0144653,0.0538206771,586.0144653,0.03414170071,
585.0073853,0.1336101741,585.0073853,0.2053940296,585.0073853,0.05423501506,585.0073853,0.03403796256,
584.000061,0.133738324,584.000061,0.2055315077,584.000061,0.05384444073,584.000061,0.03403933346,
582.9924927,0.1335303932,582.9924927,0.2059077173,582.9924927,0.05433055013,582.9924927,0.03409488127,
581.9846191,0.1332507581,581.9846191,0.2062552422,581.9846191,0.05458402634,581.9846191,0.03471530229,
581.013916,0.133286044,581.013916,0.2069541812,581.013916,0.05464012176,581.013916,0.0345900096,
580.0054932,0.1333439201,580.0054932,0.2075513154,580.0054932,0.05456656218,580.0054932,0.03473450989,
578.9969482,0.1335003376,578.9969482,0.2077702135,578.9969482,0.05462758988,578.9969482,0.03451225534,
577.9880981,0.1332996637,577.9880981,0.2084961385,577.9880981,0.05511055142,577.9880981,0.03507725522,
577.0163574,0.1333249658,577.0163574,0.2093381733,577.0163574,0.05518961325,577.0163574,0.03518144041,
576.006958,0.1333460361,576.006958,0.2097808421,576.006958,0.05516909808,576.006958,0.03525824472,
574.9973755,0.1332665235,574.9973755,0.2104190737,574.9973755,0.05542379618,574.9973755,0.03539272025,
573.9875488,0.1331357956,573.9875488,0.2110779881,573.9875488,0.05575999245,573.9875488,0.03572946414,
573.0148926,0.132998541,573.0148926,0.2119929492,573.0148926,0.05593246967,573.0148926,0.0358030498,
572.0045166,0.1330217421,572.0045166,0.2124054879,572.0045166,0.05598014221,572.0045166,0.03590268269,
570.9938965,0.1329087466,570.9938965,0.2127909958,570.9938965,0.05624389276,570.9938965,0.036133755,
569.9830322,0.1329538822,569.9830322,0.2129173577,569.9830322,0.05622220784,569.9830322,0.03613572195,
569.0093994,0.1325873435,569.0093994,0.2136161327,569.0093994,0.05656904355,569.0093994,0.03636925295,
567.9980469,0.1325246841,567.9980469,0.2143213451,567.9980469,0.0567478314,567.9980469,0.03646200895,
566.9864502,0.1324445158,566.9864502,0.2149420828,566.9864502,0.05661778897,566.9864502,0.03662425652,
566.0120239,0.1325041801,566.0120239,0.2151908576,566.0120239,0.05672727153,566.0120239,0.03662284836,
565,0.1323638856,565,0.2156116813,565,0.05684666708,565,0.03664284572,
563.9876709,0.1321452856,563.9876709,0.215941146,563.9876709,0.05713291094,563.9876709,0.0370125249,
563.0126343,0.1319772899,563.0126343,0.2166932374,563.0126343,0.05722170323,563.0126343,0.03713916615,
561.9997559,0.1317204535,561.9997559,0.2174086422,561.9997559,0.0574811846,561.9997559,0.03722675517,
560.9867554,0.1317193359,560.9867554,0.217563346,560.9867554,0.05756771192,560.9867554,0.03747235984,
560.0109863,0.1315524131,560.0109863,0.2184617668,560.0109863,0.05770209059,560.0109863,0.03751172498,
558.9974365,0.1315351427,558.9974365,0.2186439484,558.9974365,0.05737792328,558.9974365,0.03716767579,
557.9836426,0.131321609,557.9836426,0.219223395,557.9836426,0.0577839911,557.9836426,0.03737149015,
557.0072021,0.1309794784,557.0072021,0.2200306058,557.0072021,0.05798153207,557.0072021,0.03776245937,
555.9928589,0.1309161633,555.9928589,0.2207695097,555.9928589,0.05798091367,555.9928589,0.03763617203,
555.0158691,0.1306106448,555.0158691,0.2213849723,555.0158691,0.05809786916,555.0158691,0.03766694292,
554.0012207,0.1305343807,554.0012207,0.2217718214,554.0012207,0.05820390955,554.0012207,0.03749422729,
552.9862061,0.1301896572,552.9862061,0.2225994319,552.9862061,0.05824360251,552.9862061,0.03780320659,
552.0085449,0.130154714,552.0085449,0.2226692736,552.0085449,0.05842944607,552.0085449,0.0376349017,
550.993042,0.1297138333,550.993042,0.223599866,550.993042,0.05850363523,550.993042,0.03782201558,
550.0150146,0.1294811964,550.0150146,0.2242604792,550.0150146,0.05849987641,550.0150146,0.03792765364,
548.9990845,0.1290396005,548.9990845,0.225083068,548.9990845,0.05858151242,548.9990845,0.03788601607,
547.9829102,0.1288440675,547.9829102,0.2253713012,547.9829102,0.05864109099,547.9829102,0.03784441203,
547.0041504,0.1285160929,547.0041504,0.2259151042,547.0041504,0.05876785889,547.0041504,0.03788367286,
545.9874878,0.1282054484,545.9874878,0.2266586125,545.9874878,0.05883030593,545.9874878,0.03791522235,
545.0082397,0.1280680746,545.0082397,0.2271084636,545.0082397,0.05897779763,545.0082397,0.03786404058,
543.9910889,0.1275906414,543.9910889,0.2277618945,543.9910889,0.05902829766,543.9910889,0.03785384446,
543.0114136,0.1272909492,543.0114136,0.2283085734,543.0114136,0.05896646902,543.0114136,0.03780744225,
541.9938965,0.1268981993,541.9938965,0.2289501727,541.9938965,0.0588793084,541.9938965,0.03778081387,
541.0136719,0.1265893579,541.0136719,0.2294255644,541.0136719,0.05922112241,541.0136719,0.03778564185,
539.9957275,0.1265121698,539.9957275,0.2299975008,539.9957275,0.05920474604,539.9957275,0.03781266883,
539.0150757,0.1260213554,539.0150757,0.2307626009,539.0150757,0.05914331228,539.0150757,0.03772877157,
537.996582,0.1254085004,537.996582,0.23162736,537.996582,0.05899428204,537.996582,0.03769319877,
537.015564,0.1250121891,537.015564,0.2323533893,537.015564,0.05882289633,537.015564,0.03748497367,
535.996521,0.1244565919,535.996521,0.2331625968,535.996521,0.05903950706,535.996521,0.0375180766,
535.0150757,0.1241633371,535.0150757,0.2334667444,535.0150757,0.05881865695,535.0150757,0.03737295419,
533.9956055,0.123733297,533.9956055,0.2341204584,533.9956055,0.05858645961,533.9956055,0.03705526143,
533.0137329,0.1232862845,533.0137329,0.2347360849,533.0137329,0.05880463868,533.0137329,0.03699631616,
531.9937744,0.122940667,531.9937744,0.2356341332,531.9937744,0.05897379294,531.9937744,0.03713104874,
531.0114746,0.122393541,531.0114746,0.2365646958,531.0114746,0.05872213095,531.0114746,0.03681209311,
529.9910889,0.1220450625,529.9910889,0.2371351868,529.9910889,0.05851741135,529.9910889,0.03649342805,
529.0082397,0.1216858327,529.0082397,0.237766698,529.0082397,0.05835926905,529.0082397,0.03643441945,
527.9874878,0.1213318259,527.9874878,0.2382348478,527.9874878,0.05878736079,527.9874878,0.03647042438,
527.0042114,0.1212334633,527.0042114,0.2390487641,527.0042114,0.05858767405,527.0042114,0.03636823967,
525.9829712,0.1207375377,525.9829712,0.2397770733,525.9829712,0.05854377151,525.9829712,0.0360480994,
524.9992676,0.1205379888,524.9992676,0.2406015992,524.9992676,0.05836291239,524.9992676,0.03602748364,
524.0153809,0.1204027086,524.0153809,0.2411966771,524.0153809,0.05837416276,524.0153809,0.03578643501,
522.9934692,0.1200301647,522.9934692,0.2419974506,522.9934692,0.05806008354,522.9934692,0.03542689979,
522.0090942,0.1197614297,522.0090942,0.2427635491,522.0090942,0.05806141719,522.0090942,0.03544411436,
520.9867554,0.119886376,520.9867554,0.2438208014,520.9867554,0.0578728579,520.9867554,0.03511379659,
520.0020142,0.119963482,520.0020142,0.2445142567,520.0020142,0.05761077628,520.0020142,0.03494226187,
519.0170288,0.1200168505,519.0170288,0.2453209609,519.0170288,0.0576678291,519.0170288,0.03465143219,
517.9939575,0.1199660078,517.9939575,0.2462330163,517.9939575,0.05790947378,517.9939575,0.03489440307,
517.0085449,0.1201062724,517.0085449,0.2464634925,517.0085449,0.05763043463,517.0085449,0.03439380229,
515.9850464,0.1201791838,515.9850464,0.2474222481,515.9850464,0.05759079754,515.9850464,0.03439335153,
514.9992676,0.1204144955,514.9992676,0.2479041815,514.9992676,0.05753044412,514.9992676,0.03409373388,
514.0131836,0.1206452549,514.0131836,0.2485394478,514.0131836,0.0574860014,514.0131836,0.03396131471,
512.9890137,0.1212583408,512.9890137,0.2494194061,512.9890137,0.05720159039,512.9890137,0.03370856866,
512.0025635,0.1216670573,512.0025635,0.2501251698,512.0025635,0.05712042004,512.0025635,0.0335884057,
511.0158691,0.1217960194,511.0158691,0.2504302561,511.0158691,0.05714740604,511.0158691,0.03338719532,
509.9910278,0.1222680062,509.9910278,0.2509685755,509.9910278,0.05705718324,509.9910278,0.03308620304,
509.0039063,0.1225994006,509.0039063,0.2517790496,509.0039063,0.05705148727,509.0039063,0.0329786092,
508.0166626,0.1231807768,508.0166626,0.2523362041,508.0166626,0.05679222941,508.0166626,0.03273151442,
506.9911804,0.123678267,506.9911804,0.2530927062,506.9911804,0.0568597652,506.9911804,0.03253751248,
506.0034485,0.1242840365,506.0034485,0.2533634007,506.0034485,0.05653902516,506.0034485,0.03205834702,
505.0155334,0.1246353239,505.0155334,0.2540159225,505.0155334,0.05654881522,505.0155334,0.03203641251,
503.9893494,0.1252737194,503.9893494,0.2544491589,503.9893494,0.05625614896,503.9893494,0.0317210108,
503.0010071,0.1257206053,503.0010071,0.2552403212,503.0010071,0.05618850142,503.0010071,0.03160351142,
502.0124817,0.1262013912,502.0124817,0.2556119561,502.0124817,0.0560772121,502.0124817,0.03133593872,
500.9857178,0.1266460419,500.9857178,0.2562344372,500.9857178,0.05597837269,500.9857178,0.03112484328,
499.9967346,0.127181381,499.9967346,0.2565797567,499.9967346,0.05567767471,499.9967346,0.03079431877,
499.0075684,0.1277743727,499.0075684,0.2572028935,499.0075684,0.05561041087,499.0075684,0.03075358272,
498.018219,0.1282753795,498.018219,0.2576479316,498.018219,0.05565216392,498.018219,0.03039890714,
496.9905701,0.1287739724,496.9905701,0.2584021688,496.9905701,0.05567064509,496.9905701,0.03022137284,
496.000824,0.1290405691,496.000824,0.2586178482,496.000824,0.05566522852,496.000824,0.03006951511,
495.0108032,0.1295449585,495.0108032,0.2596870661,495.0108032,0.05556813255,495.0108032,0.02999170683,
493.9825134,0.1298652738,493.9825134,0.2605253458,493.9825134,0.05558045954,493.9825134,0.02989824302,
492.992157,0.1302931458,492.992157,0.2614360154,492.992157,0.05539488792,492.992157,0.02977064438,
492.0015259,0.1306558251,492.0015259,0.261988014,492.0015259,0.05544000119,492.0015259,0.02955149673,
491.0107117,0.1309739798,491.0107117,0.2625724077,491.0107117,0.05582872033,491.0107117,0.02963756956,
489.9815979,0.1312628686,489.9815979,0.263558656,489.9815979,0.05591768771,489.9815979,0.02968202531,
488.9904175,0.1314674765,488.9904175,0.2644408941,488.9904175,0.05576826259,488.9904175,0.02952099033,
487.9990234,0.1316678375,487.9990234,0.2654241025,487.9990234,0.05588335916,487.9990234,0.02952813916,
487.0074158,0.1316583008,487.0074158,0.2663342953,487.0074158,0.05636324361,487.0074158,0.0298547633,
486.0155945,0.1320928484,486.0155945,0.267200768,486.0155945,0.05660277978,486.0155945,0.02992001176,
484.9854736,0.1322933584,484.9854736,0.2685937881,484.9854736,0.0565630272,484.9854736,0.02995165624,
483.9932556,0.1324148774,483.9932556,0.2698791623,483.9932556,0.05670724064,483.9932556,0.03014184348,
483.000885,0.1321862638,483.000885,0.2702078223,483.000885,0.05760888383,483.000885,0.03060926124,
482.0083008,0.1323808432,482.0083008,0.2714593112,482.0083008,0.05799697712,482.0083008,0.0309930481,
481.0155334,0.1323108375,481.0155334,0.2728675902,481.0155334,0.05824493244,481.0155334,0.03129384667,
479.9842834,0.1321401149,479.9842834,0.2744930387,479.9842834,0.05896009505,479.9842834,0.03185467049,
478.9911194,0.1320107877,478.9911194,0.2760206759,478.9911194,0.05950858071,478.9911194,0.03243538365,
477.9977112,0.1319295913,477.9977112,0.2774631977,477.9977112,0.06020001695,477.9977112,0.03284044191,
477.0041504,0.1319102645,477.0041504,0.2785954475,477.0041504,0.06079044566,477.0041504,0.03350934759,
476.010376,0.1315444559,476.010376,0.2796607316,476.010376,0.06150865182,476.010376,0.03413822874,
475.0164185,0.1314516366,475.0164185,0.280954361,475.0164185,0.06241390109,475.0164185,0.03488638252,
473.9840088,0.1313633919,473.9840088,0.2829492092,473.9840088,0.06349736452,473.9840088,0.03586596623,
472.9896545,0.1310760081,472.9896545,0.2847375572,472.9896545,0.06442818046,472.9896545,0.03694690764,
471.9950867,0.1309271902,471.9950867,0.2861473858,471.9950867,0.06546761841,471.9950867,0.03787485883,
471.0003052,0.1307506412,471.0003052,0.2876387239,471.0003052,0.06654657423,471.0003052,0.0389979966,
470.0054321,0.1306267679,470.0054321,0.2891113758,470.0054321,0.06769763678,470.0054321,0.04020528495,
469.0102844,0.1305153966,469.0102844,0.2912514508,469.0102844,0.06914964318,469.0102844,0.04164329171,
468.0149231,0.1303853244,468.0149231,0.2933652103,468.0149231,0.07076878846,468.0149231,0.04323160276,
466.9811707,0.1304618418,466.9811707,0.2951162457,466.9811707,0.07226113975,466.9811707,0.04467176646,
465.9855042,0.1304623038,465.9855042,0.2973410189,465.9855042,0.07409935445,465.9855042,0.04642593116,
464.9895325,0.130561024,464.9895325,0.2996293902,464.9895325,0.0758234188,464.9895325,0.04822979122,
463.9934692,0.1307097971,463.9934692,0.3022457957,463.9934692,0.07809153199,463.9934692,0.0505162105,
462.9972229,0.1309633702,462.9972229,0.3051895499,462.9972229,0.08031928539,462.9972229,0.05292878672,
462.0007324,0.1313398927,462.0007324,0.3079495728,462.0007324,0.0825355798,462.0007324,0.05521703884,
461.0040588,0.131675154,461.0040588,0.310844481,461.0040588,0.08483700454,461.0040588,0.05769209936,
460.0072327,0.132059142,460.0072327,0.3135939837,460.0072327,0.08736933023,460.0072327,0.06021699682,
459.0102539,0.1325924844,459.0102539,0.3162666857,459.0102539,0.09026352316,459.0102539,0.06310396641,
458.0130005,0.1331842989,458.0130005,0.3205051124,458.0130005,0.09384530038,458.0130005,0.06701208651,
457.015625,0.1337046921,457.015625,0.3249705136,457.015625,0.09737899154,457.015625,0.07066722214,
456.0180359,0.1344027817,456.0180359,0.328817457,456.0180359,0.10095153,456.0180359,0.07456347346,
454.981842,0.1349222064,454.981842,0.3334597349,454.981842,0.1053092554,454.981842,0.0791817829,
453.9838867,0.1356442273,453.9838867,0.3384917974,453.9838867,0.110158518,453.9838867,0.08430943638,
452.9857483,0.1363156885,452.9857483,0.3439454734,452.9857483,0.1154948026,452.9857483,0.08985038102,
451.9873657,0.1369176209,451.9873657,0.3490714729,451.9873657,0.120828405,451.9873657,0.09551595896,
450.9888916,0.1374665499,450.9888916,0.3550149798,450.9888916,0.1265925467,450.9888916,0.1014811099,
449.9902039,0.1379992813,449.9902039,0.3610833883,449.9902039,0.1327688992,449.9902039,0.1081742123,
448.9913025,0.1385743469,448.9913025,0.3681045473,448.9913025,0.1399792284,448.9913025,0.1158182546,
447.9922791,0.1391785592,447.9922791,0.3755428791,447.9922791,0.1477274299,447.9922791,0.1242743582,
446.992981,0.1397846788,446.992981,0.3832881451,446.992981,0.1560451835,446.992981,0.1331049502,
445.9935913,0.1402060986,445.9935913,0.3911561668,445.9935913,0.1644120365,445.9935913,0.1422395408,
444.993988,0.140664801,444.993988,0.399589777,444.993988,0.1737943888,444.993988,0.1524621248,
443.9941406,0.1411552876,443.9941406,0.4103804231,443.9941406,0.185322389,443.9941406,0.1650154591,
442.9941711,0.1416923255,442.9941711,0.4217026234,442.9941711,0.1976946443,442.9941711,0.177823782,
441.9940186,0.1420623958,441.9940186,0.4343499839,441.9940186,0.2117120177,441.9940186,0.1934469193,
440.9937134,0.1423891932,440.9937134,0.4467712045,440.9937134,0.2257607132,440.9937134,0.2085660547,
439.9931946,0.1428530067,439.9931946,0.459297508,439.9931946,0.2403430641,439.9931946,0.2242938876,
438.9924927,0.1432433575,438.9924927,0.4753068686,438.9924927,0.257866323,438.9924927,0.2439546138,
437.9916077,0.1436542571,437.9916077,0.4921717942,437.9916077,0.2768059075,437.9916077,0.2642692924,
436.9906311,0.1438233256,436.9906311,0.5108931661,436.9906311,0.2977108657,436.9906311,0.2873696387,
435.9893188,0.1439935714,435.9893188,0.5306179523,435.9893188,0.3208137453,435.9893188,0.3115467429,
434.9879456,0.1442227066,434.9879456,0.5512763858,434.9879456,0.3439789116,434.9879456,0.3366335034,
433.9863892,0.1445243061,433.9863892,0.5741593242,433.9863892,0.3704725206,433.9863892,0.3657280803,
432.9845581,0.1446678191,432.9845581,0.5980001092,432.9845581,0.3968784511,432.9845581,0.3944655657,
431.9826355,0.1449416131,431.9826355,0.6230064034,431.9826355,0.4256228507,431.9826355,0.4265821874,
431.019104,0.1452464014,431.019104,0.6510955691,431.019104,0.4585208893,431.019104,0.4611053765,
430.0168457,0.145550698,430.0168457,0.6807219386,430.0168457,0.4928066134,430.0168457,0.4993956089,
429.0143738,0.1459067315,429.0143738,0.7141487598,429.0143738,0.532171607,429.0143738,0.5414369702,
428.0117188,0.1462443769,428.0117188,0.7483357787,428.0117188,0.5723267794,428.0117188,0.584115386,
427.0089417,0.1464848816,427.0089417,0.7847502828,427.0089417,0.615891397,427.0089417,0.6305183172,
426.0059814,0.1467947811,426.0059814,0.8245046139,426.0059814,0.6609459519,426.0059814,0.6801127195,
425.0028076,0.1471291929,425.0028076,0.8646700382,425.0028076,0.7066882253,425.0028076,0.7290658355,
423.9994812,0.1474662721,423.9994812,0.9042903781,423.9994812,0.7536722422,423.9994812,0.7805261016,
422.9960022,0.1478241235,422.9960022,0.9455278516,422.9960022,0.8010581136,422.9960022,0.8319140673,
421.9923096,0.1482605189,421.9923096,0.9910058975,421.9923096,0.8544347286,421.9923096,0.889205873,
420.9884644,0.1485014707,420.9884644,1.037928343,420.9884644,0.9082731009,420.9884644,0.9469376802,
419.9844971,0.1488770247,419.9844971,1.08458221,419.9844971,0.9660156369,419.9844971,1.006927371,
419.0189514,0.1492249817,419.0189514,1.13448,419.0189514,1.022763968,419.0189514,1.07085216,
418.0145569,0.1495987922,418.0145569,1.187110662,418.0145569,1.082953095,418.0145569,1.134551287,
417.0100098,0.1500071734,417.0100098,1.245072365,417.0100098,1.151408792,417.0100098,1.208156109,
416.0053101,0.1505092531,416.0053101,1.310512781,416.0053101,1.227755785,416.0053101,1.292119026,
415.0004883,0.1510663778,415.0004883,1.382835865,415.0004883,1.315324306,415.0004883,1.382839799,
413.9955139,0.1511351913,413.9955139,1.456449509,413.9955139,1.401035428,413.9955139,1.474886894,
412.9902649,0.1518014222,412.9902649,1.533181429,412.9902649,1.495011568,412.9902649,1.575806379,
411.9848938,0.1524564624,411.9848938,1.623938441,411.9848938,1.595196605,411.9848938,1.683846235,
411.0181274,0.1530109048,411.0181274,1.714033127,411.0181274,1.70652318,411.0181274,1.799500942,
410.0123596,0.1531780958,410.0123596,1.815903902,410.0123596,1.816331625,410.0123596,1.926176906,
409.0065613,0.1538110673,409.0065613,1.922074199,409.0065613,1.941616416,409.0065613,2.056696177,
408.0004883,0.1546984017,408.0004883,2.037982225,408.0004883,2.063619137,408.0004883,2.194804907,
406.9942932,0.1553105712,406.9942932,2.155636072,406.9942932,2.219102383,406.9942932,2.356305838,
405.9879761,0.1560465544,405.9879761,2.289507389,405.9879761,2.358365297,405.9879761,2.519759893,
404.9814453,0.156781435,404.9814453,2.446671724,404.9814453,2.557886124,404.9814453,2.693329811,
404.0134888,0.1572794318,404.0134888,2.581959009,404.0134888,2.675160408,404.0134888,2.85857296,
403.0066528,0.158169046,403.0066528,2.728365898,403.0066528,2.880079269,403.0066528,2.928715229,
401.9996338,0.1588002741,401.9996338,2.874020576,401.9996338,2.984808683,401.9996338,3.083364725,
400.9924927,0.1596796662,400.9924927,3.00870204,400.9924927,3.160035372,400.9924927,3.3039186,
399.9851379,0.1610851139,399.9851379,3.30567193,399.9851379,3.556900501,399.9851379,3.37541151,
399.0163574,0.1618337184,399.0163574,3.413156271,399.0163574,3.496147871,399.0163574,3.636700153,
398.0087585,0.1628863662,398.0087585,3.341939211,398.0087585,3.455800533,398.0087585,3.479592323,
397.0009155,0.1644742638,397.0009155,3.586190939,397.0009155,3.392961264,397.0009155,3.946260452,
395.9929199,0.1659893692,395.9929199,3.638025761,395.9929199,4.176931381,395.9929199,3.66302228,
394.9848022,0.1676640213,394.9848022,4.384013653,394.9848022,3.667879343,394.9848022,3.689477205,
394.0153198,0.1686879843,394.0153198,4.000555515,394.0153198,3.69660759,394.0153198,3.792369127,
393.0068359,0.1705443859,393.0068359,4.102044106,393.0068359,3.729545116,393.0068359,3.966248035,
391.99823,0.1722166389,391.99823,4.358081818,391.99823,3.731094122,391.99823,3.700760365,
390.9894714,0.1735563725,390.9894714,3.56256628,390.9894714,4.214048862,390.9894714,3.676290751,
390.0193176,0.1757924408,390.0193176,10,390.0193176,3.969929695,390.0193176,3.807622671,
389.0102539,0.1778261662,389.0102539,4.184104443,389.0102539,3.872739553,389.0102539,3.762351036,
388.0010071,0.179997474,388.0010071,4.112318516,388.0010071,3.965855598,388.0010071,3.931336641,
386.9916077,0.181763649,386.9916077,3.868811607,386.9916077,3.877897263,386.9916077,3.612085104,
385.9820557,0.1847694516,385.9820557,3.979248762,385.9820557,3.982697964,385.9820557,3.704227686,
385.0112,0.1878841668,385.0112,10,385.0112,4.358737469,385.0112,3.756551743,
384.0012817,0.190679431,384.0012817,3.91599679,384.0012817,3.68306613,384.0012817,10,
382.9913025,0.1936015636,382.9913025,10,382.9913025,3.75667119,382.9913025,4.096683025,
381.9811096,0.1972408742,381.9811096,4.058869839,381.9811096,3.449418545,381.9811096,4.177945614,
381.009613,0.2009024322,381.009613,3.777452469,381.009613,3.493981123,381.009613,3.640064955,
379.9991455,0.2054270506,379.9991455,10,379.9991455,3.768631935,379.9991455,4.702352524,
378.9885254,0.2103033662,378.9885254,4.179384232,378.9885254,3.912637949,378.9885254,3.79780817,
378.0166016,0.2146557719,378.0166016,4.644368172,378.0166016,4.165058613,378.0166016,3.816940546,
377.0056763,0.2187834531,377.0056763,10,377.0056763,3.731174231,377.0056763,4.097028732,
375.9945679,0.2237348557,375.9945679,3.700396061,375.9945679,3.597044706,375.9945679,3.867539167,
374.9833069,0.2297756523,374.9833069,10,374.9833069,3.752463579,374.9833069,3.468397141,
374.0108337,0.2357956469,374.0108337,3.789373159,374.0108337,3.741816521,374.0108337,3.510311842,
372.9992981,0.2419497818,372.9992981,3.633635283,372.9992981,3.508656502,372.9992981,3.807964087,
371.9875793,0.2487418652,371.9875793,4.388142586,371.9875793,10,371.9875793,10,
371.014679,0.2548826635,371.014679,10,371.014679,4.461699486,371.014679,10,
370.002655,0.2630578578,370.002655,10,370.002655,4.718709469,370.002655,4.28939724,
368.9905396,0.2712827325,368.9905396,4.238524437,368.9905396,4.231159687,368.9905396,10,
368.0171814,0.2787859142,368.0171814,3.827664137,368.0171814,3.563854456,368.0171814,4.603486538,
367.0047607,0.2868053019,367.0047607,3.744338512,367.0047607,10,367.0047607,3.892299652,
365.992157,0.2960464358,365.992157,10,365.992157,10,365.992157,10,
365.0183716,0.3056445122,365.0183716,4.468261242,365.0183716,4.339182854,365.0183716,10,
364.0054932,0.3158752322,364.0054932,10,364.0054932,10,364.0054932,10,
362.9924622,0.327052623,362.9924622,10,362.9924622,10,362.9924622,10,
362.01828,0.3354510367,362.01828,10,362.01828,4.366916656,362.01828,4.245490551,
361.0049438,0.345659852,361.0049438,10,361.0049438,10,361.0049438,10,
359.9914856,0.358359009,359.9914856,4.721800327,359.9914856,4.41499567,359.9914856,3.930553198,
359.0168762,0.3725151718,359.0168762,10,359.0168762,10,359.0168762,10,
358.0031128,0.384049356,358.0031128,10,358.0031128,10,358.0031128,10,
356.9892273,0.3953878284,356.9892273,10,356.9892273,4.205494404,356.9892273,4.674380302,
356.0141907,0.4093212485,356.0141907,10,356.0141907,10,356.0141907,4.068979263,
355.0000305,0.423900336,355.0000305,3.881958246,355.0000305,4.868597031,355.0000305,10,
353.9856873,0.4387435615,353.9856873,10,353.9856873,4.443665028,353.9856873,10,
353.0102539,0.451571703,353.0102539,3.441365957,353.0102539,3.484864235,353.0102539,3.555581093,
351.995636,0.4665930569,351.995636,4.203125954,351.995636,4.098777294,351.995636,3.857192516,
350.980896,0.4825037718,350.980896,10,350.980896,10,350.980896,3.905613899,
350.0050659,0.498085469,350.0050659,3.80519557,350.0050659,4.306868553,350.0050659,4.701321602,
348.9899902,0.5149730444,348.9899902,10,348.9899902,3.667104721,348.9899902,10,
348.0138855,0.5312758684,348.0138855,10,348.0138855,10,348.0138855,3.616479158,
346.9985352,0.5500280261,346.9985352,10,346.9985352,10,346.9985352,10,
345.9830933,0.5690636635,345.9830933,10,345.9830933,10,345.9830933,10,
345.0065918,0.5889841914,345.0065918,10,345.0065918,4.127997398,345.0065918,10,
343.9908447,0.6090441346,343.9908447,4.068768978,343.9908447,3.539511681,343.9908447,4.486120701,
343.0140686,0.6287354231,343.0140686,10,343.0140686,3.692998886,343.0140686,3.407035112,
341.9980774,0.6495624185,341.9980774,3.288676739,341.9980774,10,341.9980774,3.182642937,
340.9819336,0.6719232798,340.9819336,10,340.9819336,3.115603924,340.9819336,3.408620358,
340.0047607,0.695548892,340.0047607,10,340.0047607,10,340.0047607,3.672881365,
338.9883728,0.7204678059,338.9883728,3.258304834,338.9883728,3.645531654,338.9883728,3.916612625,
338.0108948,0.7403540015,338.0108948,10,338.0108948,3.311545134,338.0108948,3.634219646,
336.9942017,0.7643162608,336.9942017,3.377423048,336.9942017,3.244060993,336.9942017,10,
336.01651,0.7887728214,336.01651,10,336.01651,10,336.01651,10,
334.9995728,0.8168230057,334.9995728,3.852974892,334.9995728,3.848323822,334.9995728,3.614248753,
333.9824829,0.8450372815,333.9824829,10,333.9824829,10,333.9824829,10,
333.0043945,0.8684501648,333.0043945,3.592692375,333.0043945,10,333.0043945,10,
331.98703,0.8944528699,331.98703,10,331.98703,3.147011757,331.98703,3.769664764,
331.0086975,0.9215360284,331.0086975,10,331.0086975,3.438247204,331.0086975,10,
329.9910889,0.9503548741,329.9910889,10,329.9910889,4.022745132,329.9910889,10,
329.0124512,0.9765068293,329.0124512,10,329.0124512,10,329.0124512,3.345250368,
327.9945679,1.002361059,327.9945679,10,327.9945679,3.452805758,327.9945679,3.012177229,
327.0157471,1.026781321,327.0157471,10,327.0157471,10,327.0157471,10,
325.9975891,1.051194668,325.9975891,4.326332092,325.9975891,10,325.9975891,4.016955853,
325.0184937,1.078672409,325.0184937,3.43221426,325.0184937,4.0415411,325.0184937,10,
324.000061,1.102050781,324.000061,3.446819067,324.000061,3.140697241,324.000061,3.441394806,
322.9815674,1.122559667,322.9815674,10,322.9815674,10,322.9815674,10,
322.0020752,1.145918131,322.0020752,10,322.0020752,3.160914183,322.0020752,3.256788015,
320.9833069,1.171174288,320.9833069,10,320.9833069,10,320.9833069,10,
320.00354,1.197585106,320.00354,10,320.00354,3.870028734,320.00354,3.090063572,
318.9845276,1.221915007,318.9845276,3.706757307,318.9845276,3.277258158,318.9845276,3.876508951,
318.0045471,1.243690014,318.0045471,10,318.0045471,10,318.0045471,3.117805481,
316.98526,1.268056512,316.98526,3.642247677,316.98526,2.927819252,316.98526,10,
316.0050049,1.292355776,316.0050049,10,316.0050049,3.838412046,316.0050049,10,
314.9854431,1.315226078,314.9854431,3.330725193,314.9854431,3.175387383,314.9854431,10,
314.0049744,1.336043715,314.0049744,4.136469841,314.0049744,3.094018221,314.0049744,10,
312.9852295,1.357417226,312.9852295,10,312.9852295,3.625963926,312.9852295,3.203315735,
312.0045166,1.375316978,312.0045166,3.244460821,312.0045166,3.238103151,312.0045166,10,
310.984436,1.393964767,310.984436,10,310.984436,2.727880239,310.984436,2.85605979,
310.003479,1.413061857,310.003479,10,310.003479,3.547603846,310.003479,3.071088552,
308.9832153,1.430876732,308.9832153,2.950389624,308.9832153,10,308.9832153,3.370584011,
308.0020447,1.445307732,308.0020447,3.799821138,308.0020447,2.952638626,308.0020447,3.05316329,
306.9814758,1.463945508,306.9814758,4.067233086,306.9814758,3.206860781,306.9814758,10,
306.000061,1.479888916,306.000061,2.885218382,306.000061,10,306.000061,3.748392105,
305.0185547,1.50360024,305.0185547,2.833012104,305.0185547,3.11874342,305.0185547,2.692698956,
303.9976501,1.524202347,303.9976501,10,303.9976501,3.250759602,303.9976501,10,
303.0158691,1.545715332,303.0158691,3.160549879,303.0158691,2.979746342,303.0158691,10,
301.9946899,1.567245483,301.9946899,2.718122482,301.9946899,2.885717154,301.9946899,10,
301.0127258,1.593798876,301.0127258,10,301.0127258,2.915171146,301.0127258,2.81289649,
299.9913635,1.630663753,299.9913635,2.862122774,299.9913635,2.532972813,299.9913635,3.066358089,
299.0091248,1.673936725,299.0091248,2.810630322,299.0091248,2.994714737,299.0091248,2.923545361,
297.9874573,1.724532247,297.9874573,3.497985125,297.9874573,3.497935772,297.9874573,2.719755888,
297.0050049,1.784328818,297.0050049,2.591540813,297.0050049,2.732779503,297.0050049,2.821590185,
295.9831238,1.875317931,295.9831238,2.855511427,295.9831238,2.72062993,295.9831238,2.58591032,
295.0004272,1.99502492,295.0004272,2.604635715,295.0004272,2.739312172,295.0004272,3.210658312,
294.0176392,2.118904114,294.0176392,2.573847294,294.0176392,10,294.0176392,2.752532959,
292.9954529,2.24865222,292.9954529,2.210753679,292.9954529,2.555301428,292.9954529,2.307734728,
292.0124512,2.36542511,292.0124512,2.218249559,292.0124512,2.215214729,292.0124512,2.35804534,
290.9899597,2.406682491,290.9899597,10,290.9899597,2.128773451,290.9899597,2.301847458,
290.0067139,2.422667265,290.0067139,2.256504774,290.0067139,2.138779879,290.0067139,2.436038256,
288.9840393,2.504613876,288.9840393,2.051864386,288.9840393,1.987783313,288.9840393,1.994953036,
288.0006104,2.624134541,288.0006104,1.864849567,288.0006104,1.768305659,288.0006104,2.290496111,
287.0170288,2.788773298,287.0170288,1.989470482,287.0170288,1.909831643,287.0170288,10,
285.993988,2.993775368,285.993988,1.410172582,285.993988,2.190309525,285.993988,1.294525504,
285.0101929,3.247844458,285.0101929,10,285.0101929,1.600418568,285.0101929,1.504494429,
283.986969,3.538203239,283.986969,0.6855992675,283.986969,1.4129076,283.986969,1.113037705,
283.0029297,3.813007832,283.0029297,1.049597621,283.0029297,10,283.0029297,1.180341721,
282.0188293,3.941358328,282.0188293,1.571452737,282.0188293,0.6576071978,282.0188293,0.7231507301,
280.9952087,4.334834099,280.9952087,1.11510694,280.9952087,0.1183818355,280.9952087,-0.03554626182,
280.0108948,4.349003792,280.0108948,10,280.0108948,0.7502712011,280.0108948,0.7377191782,
278.9870911,4.423087597,278.9870911,10,278.9870911,10,278.9870911,0.349483639,
278.0025635,4.699894905,278.0025635,0.2271382064,278.0025635,-0.2482824624,278.0025635,-0.3798455894,
277.0178833,4.211514473,277.0178833,0.0837007761,277.0178833,0.1615130454,277.0178833,0.2595099211,
275.9937134,10,275.9937134,10,275.9937134,10,275.9937134,10,
275.0088806,4.510669708,275.0088806,10,275.0088806,0.06706355512,275.0088806,0.2348191142,
273.9844666,4.365171432,273.9844666,0.5655943751,273.9844666,0.3469747603,273.9844666,0.03689220175,
272.9993896,4.316669464,272.9993896,0.02956748568,272.9993896,0.5337851644,272.9993896,0.2852166295,
272.0142517,4.473199844,272.0142517,0.001401343266,272.0142517,-0.2024032772,272.0142517,-0.1527040154,
270.989563,4.538967133,270.989563,0.6419237852,270.989563,10,270.989563,-0.08460620046,
270.0041504,4.218059063,270.0041504,10,270.0041504,0.1962681264,270.0041504,10,
269.0186768,4.123492241,269.0186768,0.2957307696,269.0186768,0.9508248568,269.0186768,0.1976031512,
267.9936523,4.608310223,267.9936523,10,267.9936523,0.08282078803,267.9936523,0.3024546206,
267.0079651,10,267.0079651,-0.6625121832,267.0079651,10,267.0079651,10,
265.9827576,4.166854858,265.9827576,0.4414108396,265.9827576,0.1880250573,265.9827576,0.3106535077,
264.9968567,4.422012806,264.9968567,10,264.9968567,0.6010213494,264.9968567,-0.01235446054,
264.0108643,4.750629902,264.0108643,0.6058453321,264.0108643,0.6062083244,264.0108643,-0.6342604756,
262.9852905,4.120014191,262.9852905,0.04616910964,262.9852905,-0.05047393963,262.9852905,-0.09299436212,
261.999115,3.974870682,261.999115,0.180067271,261.999115,0.2740032673,261.999115,0.1293027401,
261.0127869,4.213276386,261.0127869,0.1679347903,261.0127869,-0.02696814947,261.0127869,0.1208030358,
259.986969,4.291885376,259.986969,0.1970645189,259.986969,-0.0254657194,259.986969,-0.1055493206,
259.0004883,4.692148209,259.0004883,-0.3845643997,259.0004883,-0.2458385527,259.0004883,0.1969785839,
258.013855,10,258.013855,4.621077061,258.013855,10,258.013855,4.670691013,
256.9877014,4.606816292,256.9877014,-0.2509733438,256.9877014,-0.1166296974,256.9877014,0.3038149774,
256.0009155,4.292894363,256.0009155,1.046064019,256.0009155,10,256.0009155,0.2529591322,
255.0140076,4.419108391,255.0140076,0.9103522897,255.0140076,0.1226411462,255.0140076,0.2076771259,
253.9875793,4.476715565,253.9875793,10,253.9875793,0.2036560625,253.9875793,10,
253.0005035,4.427055836,253.0005035,-0.05097052455,253.0005035,-0.02459598705,253.0005035,0.1936643869,
252.0133057,4.440587997,252.0133057,0.645498693,252.0133057,0.2085823417,252.0133057,0.4320597947,
250.9865265,4.1286726,250.9865265,10,250.9865265,0.3462079167,250.9865265,0.01301678643,
249.999176,4.235442638,249.999176,-0.02432473004,249.999176,-0.04697946087,249.999176,0.09646783769,
249.0116882,3.975940466,249.0116882,0.1702805161,249.0116882,0.07408747077,249.0116882,0.07895439863,
247.9846191,4.304150581,247.9846191,-0.0471178554,247.9846191,-0.2307816744,247.9846191,-0.1290520132,
246.9969635,4.526797295,246.9969635,0.008113348857,246.9969635,-0.06965399534,246.9969635,-0.1049067676,
246.009201,4.025853157,246.009201,0.4488784671,246.009201,0.2027764022,246.009201,0.1448302716,
244.9818573,3.886024475,244.9818573,0.3232978582,244.9818573,0.5917645097,244.9818573,0.1917066276,
243.993927,3.896057606,243.993927,0.2815828919,243.993927,0.5417782664,243.993927,0.3707599938,
243.0058746,4.126942635,243.0058746,0.2698565125,243.0058746,0.2403616011,243.0058746,0.2042082548,
242.0177612,3.998748302,242.0177612,0.4020955861,242.0177612,0.4691242874,242.0177612,0.3507686853,
240.9900208,4.115399837,240.9900208,0.5591154695,240.9900208,0.4015173018,240.9900208,0.2059022337,
240.001709,4.15628767,240.001709,0.8098978996,240.001709,0.04673723876,240.001709,0.164993614,
239.0133209,3.890262365,239.0133209,0.8755831122,239.0133209,0.5314366817,239.0133209,10,
237.9853058,4.122581959,237.9853058,1.231007218,237.9853058,1.230841756,237.9853058,1.225358486,
236.9967041,4.144581795,236.9967041,1.19164753,236.9967041,0.348672837,236.9967041,0.5881192684,
236.0080566,4.660664558,236.0080566,-0.5077418685,236.0080566,-0.5610010028,236.0080566,0.2124449164,
235.0192871,4.853331089,235.0192871,-0.01190068945,235.0192871,-0.005113219377,235.0192871,-0.3094822764,
233.99086,4.469770432,233.99086,0.1179393753,233.99086,-0.08013123274,233.99086,10,
233.0019379,4.144994259,233.0019379,0.5684962869,233.0019379,0.02705374546,233.0019379,0.3522284925,
232.0129089,4.628710747,232.0129089,-0.4828774333,232.0129089,-0.3569129705,232.0129089,0.5899481773,
230.9842377,4.48776722,230.9842377,10,230.9842377,10,230.9842377,-0.1887010485,
229.9950562,4.215655327,229.9950562,0.02539975196,229.9950562,0.4672318995,229.9950562,0.1691953242,
229.0057373,4.348128319,229.0057373,-0.01647108421,229.0057373,10,229.0057373,0.5493831635,
228.0163879,4.120275974,228.0163879,-0.05574883893,228.0163879,0.06136933342,228.0163879,0.05787942559,
226.9873352,4.285277843,226.9873352,-0.0242663268,226.9873352,0.06702038646,226.9873352,-0.06856627017,
225.997757,4.134306431,225.997757,0.07414337993,225.997757,0.02004773356,225.997757,0.2100483477,
225.0081329,4.19192791,225.0081329,0.08676948398,225.0081329,-0.1529790759,225.0081329,0.06018547714,
224.0184174,4.158083916,224.0184174,0.2596533,224.0184174,0.3550851643,224.0184174,0.0595578365,
222.9890289,4.132745266,222.9890289,0.229102686,222.9890289,0.162485078,222.9890289,0.1421200484,
221.999115,4.036255836,221.999115,0.3222461343,221.999115,0.1949773431,221.999115,0.1150918454,
221.0091553,4.176711082,221.0091553,-0.02905475348,221.0091553,0.02476352081,221.0091553,0.27565974,
220.0190887,4.128143787,220.0190887,0.1307550222,220.0190887,-0.06281428039,220.0190887,0.04649726301,
218.9893494,4.147009373,218.9893494,0.4697634876,218.9893494,0.01635070331,218.9893494,0.04464757815,
217.9990997,3.960326195,217.9990997,10,217.9990997,0.3195634484,217.9990997,0.380366534,
217.0088043,4.287002563,217.0088043,-0.02823269553,217.0088043,-0.1587078422,217.0088043,-0.1924615353,
216.0184021,3.993125677,216.0184021,0.04736375809,216.0184021,0.5092390776,216.0184021,0.0767877996,
214.988327,3.979548454,214.988327,0.5858960152,214.988327,0.0404002741,214.988327,0.3229321241,
213.997757,3.847533941,213.997757,0.538343966,213.997757,0.5292674899,213.997757,0.2741043866,
213.0071411,3.990437031,213.0071411,0.05179346725,213.0071411,-0.07059011608,213.0071411,0.362355113,
212.0164032,3.939064264,212.0164032,0.5836799145,212.0164032,0.2601441145,212.0164032,0.255479753,
210.9859924,4.036902428,210.9859924,0.2417272478,210.9859924,0.738758862,210.9859924,0.3213978708,
209.9951019,3.990232706,209.9951019,0.1857910752,209.9951019,0.1604029238,209.9951019,0.1276700348,
209.0041504,3.988012791,209.0041504,0.2471528947,209.0041504,0.6233032346,209.0041504,-0.07407486439,
208.013092,4.019901276,208.013092,-0.0331550017,208.013092,0.0926188007,208.013092,0.2430378944,
206.9823608,4.060842037,206.9823608,0.6341350079,206.9823608,0.3578054011,206.9823608,0.211754635,
205.9911499,4.050685883,205.9911499,0.4601054788,205.9911499,0.03092494234,205.9911499,0.4162411094,
204.9998932,3.959361076,204.9998932,0.3470574021,204.9998932,0.2521849871,204.9998932,0.409812659,
204.0085297,4.162675381,204.0085297,0.1978886127,204.0085297,0.1204255298,204.0085297,-0.04447870329,
203.0171051,3.995426416,203.0171051,0.1835488379,203.0171051,-0.05230649188,203.0171051,0.004008714575,
201.9859467,3.963406324,201.9859467,0.440666914,201.9859467,0.3521443307,201.9859467,0.04367783293,
200.9943695,4.024600029,200.9943695,0.1285349578,200.9943695,-0.01726429351,200.9943695,0.1893357933,
200.0027008,3.736095905,200.0027008,0.6118509769,200.0027008,0.3074628711,200.0027008,0.321158886,

Baseline 100%T,
Baseline 100%T
Collection Time: 3/24/2026 3:09:19 PM
Operator Name  :
Scan Version 5.3.0.1079
Parameter List :
Instrument  Cary 60
Instrument Version  2.00
Start (nm)  800.0
Stop (nm)  200.0
X Mode  Nanometers
Y Mode  Abs
UV-Vis Scan Rate (nm/min)  600.000
UV-Vis Data Interval (nm)  1.00
UV-Vis Ave. Time (sec)  0.1000
Beam Mode  Dual Beam
Baseline Correction  On
Baseline Type  Baseline correction
Baseline File Name
Baseline Std Ref File Name
Cycle Mode  Off
Method Log     :
Method Name    :
Date/Time stamp: 3/24/2026 2:33:05 PM
Method Modifications:
UVVIS SAT Changed: 3/24/2026 3:09:09 PM, Old:0.0125, New:0.1000
Common SAT Changed: 3/24/2026 3:09:09 PM, Old:0.0125, New:0.1000
Common Interval nm Changed: 3/24/2026 3:09:15 PM, Old:     5.00, New:     1.00
Baseline Correction Changed: 3/24/2026 3:09:15 PM, Old:0, New:1
End Method Modifications
<Current Wavelength> , 205.0

R1 Sulfuric acid + Ferric Sulfate,
R1 Sulfuric acid + Ferric Sulfate
Collection Time: 3/24/2026 3:13:16 PM
Operator Name  :
Scan Version 5.3.0.1079
Parameter List :
Instrument  Cary 60
Instrument Version  2.00
Start (nm)  800.0
Stop (nm)  200.0
X Mode  Nanometers
Y Mode  Abs
UV-Vis Scan Rate (nm/min)  600.000
UV-Vis Data Interval (nm)  1.00
UV-Vis Ave. Time (sec)  0.1000
Beam Mode  Dual Beam
Baseline Correction  On
Baseline Type  Baseline correction
Baseline File Name
Baseline Std Ref File Name
Cycle Mode  Off
Method Log     :
Method Name    :
Date/Time stamp: 3/24/2026 2:33:05 PM
Method Modifications:
UVVIS SAT Changed: 3/24/2026 3:09:09 PM, Old:0.0125, New:0.1000
Common SAT Changed: 3/24/2026 3:09:09 PM, Old:0.0125, New:0.1000
Common Interval nm Changed: 3/24/2026 3:09:15 PM, Old:     5.00, New:     1.00
Baseline Correction Changed: 3/24/2026 3:09:15 PM, Old:0, New:1
End Method Modifications
<Current Wavelength> , 201.0

R2 Sulfuric acid + Ferric Sulfate,
R2 Sulfuric acid + Ferric Sulfate
Collection Time: 3/24/2026 3:16:48 PM
Operator Name  :
Scan Version 5.3.0.1079
Parameter List :
Instrument  Cary 60
Instrument Version  2.00
Start (nm)  800.0
Stop (nm)  200.0
X Mode  Nanometers
Y Mode  Abs
UV-Vis Scan Rate (nm/min)  600.000
UV-Vis Data Interval (nm)  1.00
UV-Vis Ave. Time (sec)  0.1000
Beam Mode  Dual Beam
Baseline Correction  On
Baseline Type  Baseline correction
Baseline File Name
Baseline Std Ref File Name
Cycle Mode  Off
Method Log     :
Method Name    :
Date/Time stamp: 3/24/2026 2:33:05 PM
Method Modifications:
UVVIS SAT Changed: 3/24/2026 3:09:09 PM, Old:0.0125, New:0.1000
Common SAT Changed: 3/24/2026 3:09:09 PM, Old:0.0125, New:0.1000
Common Interval nm Changed: 3/24/2026 3:09:15 PM, Old:     5.00, New:     1.00
Baseline Correction Changed: 3/24/2026 3:09:15 PM, Old:0, New:1
End Method Modifications
<Current Wavelength> , 203.0

R3 Sulfuric acid + Ferric Sulfate,
R3 Sulfuric acid + Ferric Sulfate
Collection Time: 3/24/2026 3:20:13 PM
Operator Name  :
Scan Version 5.3.0.1079
Parameter List :
Instrument  Cary 60
Instrument Version  2.00
Start (nm)  800.0
Stop (nm)  200.0
X Mode  Nanometers
Y Mode  Abs
UV-Vis Scan Rate (nm/min)  600.000
UV-Vis Data Interval (nm)  1.00
UV-Vis Ave. Time (sec)  0.1000
Beam Mode  Dual Beam
Baseline Correction  On
Baseline Type  Baseline correction
Baseline File Name
Baseline Std Ref File Name
Cycle Mode  Off
Method Log     :
Method Name    :
Date/Time stamp: 3/24/2026 2:33:05 PM
Method Modifications:
UVVIS SAT Changed: 3/24/2026 3:09:09 PM, Old:0.0125, New:0.1000
Common SAT Changed: 3/24/2026 3:09:09 PM, Old:0.0125, New:0.1000
Common Interval nm Changed: 3/24/2026 3:09:15 PM, Old:     5.00, New:     1.00
Baseline Correction Changed: 3/24/2026 3:09:15 PM, Old:0, New:1
End Method Modifications
<Current Wavelength> , 204.0

