Baseline 100%T,,R1 sulfuric + ferric1,,R2 sulfuric + ferric,,R3 sulfuric + ferric,
Wavelength (nm),Abs,Wavelength (nm),Abs,Wavelength (nm),Abs,Wavelength (nm),Abs
799.9872437,0.122644439,799.9872437,0.002280603,799.9872437,0.001039867,799.9872437,-0.000222045
799.012146,0.122961447,799.012146,0.002205796,799.012146,0.000683565,799.012146,-2.06E-05
798.0018921,0.122786194,798.0018921,0.002410682,798.0018921,0.000611132,798.0018921,0.000469126
796.9911499,0.123174794,796.9911499,0.002264886,796.9911499,-0.000326869,796.9911499,-0.000429288
796.0148926,0.12314716,796.0148926,0.00231485,796.0148926,0.000273209,796.0148926,-1.89E-05
795.0033569,0.12296392,795.0033569,0.002204443,795.0033569,0.000520102,795.0033569,-0.000280875
793.9915161,0.122941762,793.9915161,0.002528953,793.9915161,0.000782746,793.9915161,-8.79E-05
793.0140991,0.123228975,793.0140991,0.002801804,793.0140991,7.26E-05,793.0140991,9.13E-05
792.0014648,0.123279207,792.0014648,0.002258147,792.0014648,0.000164174,792.0014648,0.000150035
790.9882813,0.123546749,790.9882813,0.001415237,790.9882813,-5.11E-05,790.9882813,0.000159953
790.0098267,0.12363074,790.0098267,0.0020254,790.0098267,-0.000229341,790.0098267,-0.000445838
788.9958496,0.123281919,788.9958496,0.002759104,788.9958496,0.000149828,788.9958496,7.57E-05
788.0165405,0.123542242,788.0165405,0.002290882,788.0165405,0.00021501,788.0165405,-0.000539232
787.0018921,0.123484314,787.0018921,0.003212106,787.0018921,0.000955803,787.0018921,0.000441399
785.9868164,0.123692721,785.9868164,0.001607435,785.9868164,0.000470888,785.9868164,-0.00046094
785.0064087,0.123677917,785.0064087,0.002254452,785.0064087,0.000392427,785.0064087,0.000146229
783.9905396,0.123846822,783.9905396,0.002147,783.9905396,0.000341337,783.9905396,-3.32E-05
783.0093994,0.124255434,783.0093994,0.002004075,783.0093994,0.00034385,783.0093994,-0.000351751
781.9927368,0.123808026,781.9927368,0.002685308,781.9927368,0.000236636,781.9927368,0.000391935
781.0107422,0.123679332,781.0107422,0.002463188,781.0107422,0.000778545,781.0107422,0.000276395
779.9934082,0.124484792,779.9934082,0.0019756,779.9934082,0.000410875,779.9934082,-0.000496158
779.0106812,0.124365203,779.0106812,0.001660779,779.0106812,-0.00028398,779.0106812,-0.000116109
777.9924927,0.124152035,777.9924927,0.002092867,777.9924927,8.00E-05,777.9924927,-0.000669154
777.0090332,0.124357246,777.0090332,0.001914027,777.0090332,-0.000132878,777.0090332,-0.00019524
775.9901123,0.124128915,775.9901123,0.002161308,775.9901123,0.000635836,775.9901123,-0.000106689
775.0058594,0.124514625,775.0058594,0.002043865,775.0058594,-0.00016626,775.0058594,-0.000349837
773.986145,0.123850852,773.986145,0.002733627,773.986145,0.000559575,773.986145,0.000462285
773.0012207,0.12438082,773.0012207,0.00204501,773.0012207,-2.01E-05,773.0012207,-4.50E-05
772.0159302,0.124581792,772.0159302,0.00221394,772.0159302,0.000169819,772.0159302,-0.00015622
770.9950562,0.12410742,770.9950562,0.002847269,770.9950562,0.000454744,770.9950562,9.73E-05
770.0089722,0.124444768,770.0089722,0.002360395,770.0089722,0.000268728,770.0089722,7.94E-05
768.9873047,0.1249872,768.9873047,0.001513469,768.9873047,-8.12E-05,768.9873047,-0.001157371
768.0005493,0.12438751,768.0005493,0.00211222,768.0005493,8.72E-05,768.0005493,-0.000567826
767.0133667,0.124435842,767.0133667,0.002504973,767.0133667,0.000121474,767.0133667,-0.000258576
765.9906006,0.124527589,765.9906006,0.001930147,765.9906006,5.93E-06,765.9906006,-0.000478058
765.0027466,0.124313988,765.0027466,0.002448662,765.0027466,0.00018067,765.0027466,0.00029318
764.0145264,0.12402916,764.0145264,0.003016877,764.0145264,0.000867295,764.0145264,0.000467908
762.9906006,0.124382787,762.9906006,0.002196482,762.9906006,0.000337943,762.9906006,0.000220941
762.0016479,0.12495748,762.0016479,0.001727332,762.0016479,-7.53E-05,762.0016479,-0.000851641
761.0122681,0.124258056,761.0122681,0.002819468,761.0122681,0.001089223,761.0122681,-4.86E-05
759.9872437,0.124616526,759.9872437,0.002722348,759.9872437,0.000228167,759.9872437,-0.000324592
758.9971924,0.124510728,758.9971924,0.002013151,758.9971924,-0.000128582,758.9971924,-0.000503346
758.0067749,0.124090232,758.0067749,0.002277377,758.0067749,-0.000176144,758.0067749,-0.000246158
757.0159302,0.123882286,757.0159302,0.002300823,757.0159302,0.00038424,757.0159302,-0.000319781
755.9893799,0.12377777,755.9893799,0.002789168,755.9893799,0.000580933,755.9893799,-0.000129307
754.9978638,0.123816051,754.9978638,0.00187352,754.9978638,0.000484545,754.9978638,-0.000110726
754.0059814,0.123352997,754.0059814,0.002571239,754.0059814,0.000738377,754.0059814,0.00038082
753.0137939,0.123303376,753.0137939,0.002541477,753.0137939,0.000326571,753.0137939,-0.000183493
751.9857178,0.123381607,751.9857178,0.002173275,751.9857178,0.000235238,751.9857178,-0.000122372
750.9927979,0.122855537,750.9927979,0.002834841,750.9927979,0.000220242,750.9927979,0.000107103
749.9995117,0.122888655,749.9995117,0.002480787,749.9995117,0.000635784,749.9995117,0.000174092
749.0057983,0.122760639,749.0057983,0.002454025,749.0057983,0.000149129,749.0057983,5.30E-05
748.0118408,0.12208727,748.0118408,0.002929641,748.0118408,0.000960213,748.0118408,0.000567584
747.0174561,0.122547358,747.0174561,0.002772729,747.0174561,0.000331441,747.0174561,0.000113706
745.9871826,0.122578286,745.9871826,0.002130533,745.9871826,2.61E-06,745.9871826,-0.000752009
744.9921265,0.122156985,744.9921265,0.002241338,744.9921265,0.000508154,744.9921265,-0.000534268
743.9967041,0.121747427,743.9967041,0.002682521,743.9967041,0.000319265,743.9967041,-9.66E-05
743.0008545,0.121202119,743.0008545,0.002400088,743.0008545,0.000460859,743.0008545,0.000172357
742.0047607,0.121108063,742.0047607,0.002092763,742.0047607,0.00010933,742.0047607,0.000234435
741.0083008,0.120684423,741.0083008,0.002370728,741.0083008,0.000552525,741.0083008,0.000310251
740.0114746,0.120431066,740.0114746,0.002142083,740.0114746,0.000405538,740.0114746,-0.000283876
739.0142212,0.120168701,739.0142212,0.00235761,739.0142212,0.000160704,739.0142212,-0.000289154
738.0167236,0.119757302,738.0167236,0.002027403,738.0167236,0.000110754,738.0167236,-0.000546161
736.9832153,0.119082749,736.9832153,0.002086729,736.9832153,0.000159565,736.9832153,-8.14E-05
735.9849243,0.118325844,735.9849243,0.002001761,735.9849243,0.000435128,735.9849243,-0.000301933
734.9863281,0.117749326,734.9863281,0.002008002,734.9863281,0.000117978,734.9863281,-0.000291844
733.9874268,0.116917588,733.9874268,0.002315058,733.9874268,-4.35E-05,733.9874268,-6.67E-05
732.9881592,0.116229966,732.9881592,0.002172052,732.9881592,0.000249897,732.9881592,1.04E-05
731.9885254,0.115133956,731.9885254,0.002644052,731.9885254,0.000514063,731.9885254,-6.26E-05
730.9885254,0.114232473,730.9885254,0.002535827,730.9885254,0.000623652,730.9885254,-4.45E-05
729.9882202,0.113226108,729.9882202,0.002807718,729.9882202,0.000429298,729.9882202,8.65E-05
728.9874878,0.112805054,728.9874878,0.002513565,728.9874878,9.02E-05,728.9874878,-0.000449717
727.9865723,0.111511223,727.9865723,0.002715263,727.9865723,0.000502738,727.9865723,5.64E-06
726.9852295,0.110854089,726.9852295,0.002564209,726.9852295,0.00050691,726.9852295,-0.000412944
725.9835205,0.110191643,725.9835205,0.002258017,725.9835205,0.000465187,725.9835205,-0.000282479
725.0172729,0.109213561,725.0172729,0.002444419,725.0172729,0.000225344,725.0172729,-0.000144627
724.0148926,0.108525857,724.0148926,0.002400114,724.0148926,0.000328229,724.0148926,-2.38E-06
723.012207,0.107900865,723.012207,0.00239988,723.012207,0.000284373,723.012207,8.44E-05
722.0090942,0.107238501,722.0090942,0.002298767,722.0090942,0.000516447,722.0090942,-5.92E-05
721.0057373,0.106277026,721.0057373,0.00239457,721.0057373,0.000383307,721.0057373,9.67E-05
720.0020142,0.105704516,720.0020142,0.002317088,720.0020142,0.000288025,720.0020142,-0.000534372
718.9979248,0.105175905,718.9979248,0.002322059,718.9979248,-2.23E-06,718.9979248,-0.000381961
717.9935303,0.104176663,717.9935303,0.002627176,717.9935303,0.00069588,717.9935303,-4.27E-05
716.9887695,0.103681751,716.9887695,0.002346419,716.9887695,0.000118108,716.9887695,-0.000379064
715.9837036,0.103044748,715.9837036,0.002248623,715.9837036,7.67E-05,715.9837036,-0.00030245
715.0141602,0.102389246,715.0141602,0.002398292,715.0141602,0.000247437,715.0141602,-0.00034156
714.0083618,0.101569638,714.0083618,0.002545695,714.0083618,0.000332943,714.0083618,-4.83E-05
713.0023193,0.101049654,713.0023193,0.002425129,713.0023193,0.000358539,713.0023193,-0.000136139
711.9959106,0.100340143,711.9959106,0.002484926,711.9959106,0.000527332,711.9959106,-0.000128945
710.9891357,0.099933833,710.9891357,0.002697863,710.9891357,0.000273468,710.9891357,-0.000237775
709.9820557,0.09957175,709.9820557,0.00234012,709.9820557,0.000488095,709.9820557,-6.20E-05
709.0106201,0.099247381,709.0106201,0.002688382,709.0106201,0.000449069,709.0106201,-3.54E-05
708.0028687,0.099226043,708.0028687,0.002325312,708.0028687,0.000286756,708.0028687,-0.000247658
706.9946899,0.099099383,706.9946899,0.002473133,706.9946899,0.000133281,706.9946899,7.07E-05
705.9863281,0.099025145,705.9863281,0.0024849,705.9863281,0.000539877,705.9863281,-0.000133603
705.0135498,0.099327028,705.0135498,0.002472586,705.0135498,0.000209261,705.0135498,-0.000219302
704.0045166,0.099327676,704.0045166,0.00262853,704.0045166,0.000366804,704.0045166,4.75E-05
702.9950562,0.099729158,702.9950562,0.002663768,702.9950562,0.000340663,702.9950562,-0.000155754
701.9853516,0.100249127,701.9853516,0.002371222,701.9853516,0.000453966,701.9853516,-0.000229703
701.0112915,0.100729302,701.0112915,0.002684631,701.0112915,0.000421706,701.0112915,-0.000150061
700.0009766,0.101209492,700.0009766,0.00252122,700.0009766,0.000570357,700.0009766,-8.69E-05
698.9902344,0.101915412,698.9902344,0.002563401,698.9902344,0.000455832,698.9902344,-6.85E-05
698.0152588,0.102898829,698.0152588,0.002564912,698.0152588,0.00020289,698.0152588,-0.000141056
697.0039673,0.103525035,697.0039673,0.002739853,697.0039673,0.000640503,697.0039673,0.000113758
695.9921875,0.104406126,695.9921875,0.002602436,695.9921875,0.000337114,695.9921875,-0.00013174
695.0163574,0.105207562,695.0163574,0.002533171,695.0163574,0.000492656,695.0163574,-0.000181371
694.0039673,0.106107809,694.0039673,0.002255701,694.0039673,0.000157648,694.0039673,-0.000259921
692.991333,0.106686935,692.991333,0.00252312,692.991333,0.00040844,692.991333,-9.36E-05
692.0145264,0.107556291,692.0145264,0.002619858,692.0145264,0.000524119,692.0145264,-6.64E-05
691.0011597,0.10851755,691.0011597,0.002348995,691.0011597,8.28E-05,691.0011597,-0.000163776
689.9874878,0.109226912,689.9874878,0.002609207,689.9874878,0.000383955,689.9874878,5.67E-05
689.0097656,0.110132426,689.0097656,0.00246298,689.0097656,0.000331234,689.0097656,-0.000281134
687.9954834,0.111185074,687.9954834,0.002250002,687.9954834,0.000108191,687.9954834,-0.000413409
687.0170898,0.111844815,687.0170898,0.002199291,687.0170898,5.76E-05,687.0170898,-0.000344561
686.0022583,0.112612642,686.0022583,0.002413884,686.0022583,0.000474801,686.0022583,-0.000304002
684.9869385,0.113036163,684.9869385,0.002680776,684.9869385,0.000635836,684.9869385,1.10E-05
684.0076904,0.11377646,684.0076904,0.00262215,684.0076904,0.00051738,684.0076904,0.000103789
682.9918213,0.114687622,682.9918213,0.002364195,682.9918213,0.000468374,682.9918213,-1.25E-05
682.0119019,0.115244657,682.0119019,0.002515101,682.0119019,0.000352814,682.0119019,-0.000139399
680.9954224,0.115927264,680.9954224,0.002345378,680.9954224,0.000414477,680.9954224,-0.000152183
680.0148926,0.116475098,680.0148926,0.002190394,680.0148926,0.000404916,680.0148926,1.54E-05
678.9977417,0.11709924,678.9977417,0.002584988,678.9977417,0.00022133,678.9977417,0.000169379
678.0166016,0.117872916,678.0166016,0.002171792,678.0166016,0.000362373,678.0166016,-0.00019405
676.9989014,0.118133046,676.9989014,0.002497814,676.9989014,0.000731999,676.9989014,-5.79E-05
676.0170898,0.118695401,676.0170898,0.002194687,676.0170898,0.000464487,676.0170898,-0.000137381
674.9987183,0.119314395,674.9987183,0.00234176,674.9987183,0.000417301,674.9987183,-0.000132205
674.0164185,0.119615585,674.0164185,0.002523303,674.0164185,0.000372581,674.0164185,1.29E-05
672.9973145,0.120231658,672.9973145,0.002255363,672.9973145,0.00071403,672.9973145,-0.000464043
672.0144653,0.120519742,672.0144653,0.002435724,672.0144653,0.000456506,672.0144653,4.07E-05
670.994812,0.121296808,670.994812,0.002306913,670.994812,0.000348073,670.994812,-0.000280824
670.0112915,0.121943831,670.0112915,0.002354018,670.0112915,0.000138616,670.0112915,-0.000246985
668.9909668,0.122376077,668.9909668,0.002418101,668.9909668,0.000323928,668.9909668,-8.71E-05
668.0068359,0.122238472,668.0068359,0.002442284,668.0068359,0.000561078,668.0068359,0.0001902
666.9859619,0.122229315,666.9859619,0.002275399,666.9859619,0.000290926,666.9859619,-0.000610169
666.0012207,0.122019351,666.0012207,0.001927911,666.0012207,7.75E-05,666.0012207,-0.000348337
665.0162354,0.121327236,665.0162354,0.00306737,665.0162354,0.000780438,665.0162354,0.000601307
663.9943848,0.12159431,663.9943848,0.00287562,663.9943848,0.000815915,663.9943848,1.04E-07
663.0087891,0.121600814,663.0087891,0.002642932,663.0087891,0.000661398,663.0087891,4.35E-06
661.9863281,0.121954151,661.9863281,0.002344467,661.9863281,0.00018414,661.9863281,-0.000105033
661.0001831,0.121923678,661.0001831,0.002480865,661.0001831,0.000519739,661.0001831,-0.000148094
660.0136108,0.121967174,660.0136108,0.002243732,660.0136108,0.000413466,660.0136108,-7.11E-05
658.9902954,0.122147791,658.9902954,0.00204566,658.9902954,0.00025557,658.9902954,-0.00014856
658.0032349,0.122273773,658.0032349,0.002373097,658.0032349,0.00018054,658.0032349,-0.000319833
657.0158691,0.122163087,657.0158691,0.002568297,657.0158691,0.000489495,657.0158691,-3.01E-05
655.9915771,0.122261353,655.9915771,0.002418726,655.9915771,0.000426344,655.9915771,-0.000137174
655.0036621,0.122305125,655.0036621,0.002387724,655.0036621,0.000248758,655.0036621,-0.000394427
654.0153809,0.122077875,654.0153809,0.002565797,654.0153809,0.000478662,654.0153809,0.000194758
652.9902344,0.122266978,652.9902344,0.002330361,652.9902344,0.000405097,652.9902344,-1.55E-06
652.0014038,0.122372374,652.0014038,0.002425233,652.0014038,0.000479362,652.0014038,-0.000296397
651.0122681,0.122331612,651.0122681,0.002449547,651.0122681,0.000487784,651.0122681,0.000195975
649.9862061,0.122218236,649.9862061,0.002864728,649.9862061,0.000596849,649.9862061,0.000223143
648.996521,0.122715376,648.996521,0.002315891,648.996521,0.000118626,648.996521,-0.000177334
648.0065308,0.122629471,648.0065308,0.002633999,648.0065308,0.000646076,648.0065308,8.03E-05
647.0162354,0.122793853,647.0162354,0.002639417,647.0162354,0.000272717,647.0162354,4.40E-07
645.9890137,0.122968249,645.9890137,0.002631708,645.9890137,0.000239408,645.9890137,-0.000126512
644.9981079,0.122963443,644.9981079,0.002694737,644.9981079,0.000189915,644.9981079,-5.59E-06
644.007019,0.123206973,644.007019,0.002568974,644.007019,0.000176397,644.007019,-0.000166001
643.015564,0.123290755,643.015564,0.002363154,643.015564,5.57E-05,643.015564,-5.01E-05
641.9871826,0.123138256,641.9871826,0.002421381,641.9871826,0.000420255,641.9871826,0.000142396
640.9951782,0.123194873,640.9951782,0.002741728,640.9951782,0.000297454,640.9951782,5.89E-05
640.0028687,0.123500861,640.0028687,0.002343061,640.0028687,0.000344705,640.0028687,-0.000199742
639.010376,0.123556353,639.010376,0.002356231,639.010376,0.000266966,639.010376,-0.000197155
638.0175171,0.123832196,638.0175171,0.002306028,638.0175171,0.00015783,638.0175171,-7.10E-05
636.9876099,0.123760559,636.9876099,0.002315917,636.9876099,1.81E-07,636.9876099,-0.000121233
635.9942017,0.123742141,635.9942017,0.002554731,635.9942017,0.000732725,635.9942017,-7.46E-06
635.0005493,0.124003194,635.0005493,0.002432756,635.0005493,0.000153635,635.0005493,-0.000385685
634.0065918,0.123898365,634.0065918,0.002507473,634.0065918,0.000340482,634.0065918,-1.12E-05
633.0123291,0.124049477,633.0123291,0.002505442,633.0123291,0.000302842,633.0123291,7.27E-05
632.0178223,0.124385923,632.0178223,0.002364039,632.0178223,0.000140117,632.0178223,-0.000411289
630.9862061,0.124174841,630.9862061,0.00271521,630.9862061,0.000553225,630.9862061,5.10E-05
629.9910278,0.12452548,629.9910278,0.002264626,629.9910278,0.000173885,629.9910278,-0.000312383
628.9957275,0.124396198,628.9957275,0.002468186,628.9957275,0.000445493,628.9957275,-9.69E-05
628.0001221,0.124595381,628.0001221,0.002457513,628.0001221,2.87E-06,628.0001221,0.000123235
627.0042114,0.124752916,627.0042114,0.002441711,627.0042114,0.000271836,627.0042114,-8.02E-05
626.0079346,0.124933906,626.0079346,0.002439915,626.0079346,0.000397117,626.0079346,-7.67E-05
625.0115356,0.124851562,625.0115356,0.002520231,625.0115356,0.00066272,625.0115356,-0.000125011
624.0148315,0.125011057,624.0148315,0.002464229,624.0148315,0.000278881,624.0148315,-0.00010612
623.0177612,0.125066489,623.0177612,0.0025113,623.0177612,0.000417405,623.0177612,-0.000276012
621.9835815,0.125233933,621.9835815,0.002224945,621.9835815,0.000351855,621.9835815,-8.75E-06
620.9860229,0.125424147,620.9860229,0.002293329,620.9860229,3.31E-05,620.9860229,-0.000389564
619.9880981,0.125346586,619.9880981,0.002443664,619.9880981,0.000288828,619.9880981,0.000140635
618.9900513,0.125639781,618.9900513,0.002360655,618.9900513,0.000174481,618.9900513,-0.000306071
617.9916992,0.12592189,617.9916992,0.002090032,617.9916992,2.79E-05,617.9916992,-0.000446872
616.993042,0.125892386,616.993042,0.002183577,616.993042,0.000198384,616.993042,-0.000330128
615.9940796,0.125983894,615.9940796,0.002592905,615.9940796,4.47E-05,615.9940796,-0.000399444
614.9949341,0.126352161,614.9949341,0.002052682,614.9949341,-0.000178007,614.9949341,-0.00080467
613.9954224,0.126356736,613.9954224,0.001944032,613.9954224,-0.000145248,613.9954224,-0.00076555
612.9956665,0.126560226,612.9956665,0.001755376,612.9956665,-0.000302295,612.9956665,-0.000599416
611.9957275,0.126748413,611.9957275,0.001807594,611.9957275,-0.000487883,611.9957275,-0.000832213
610.9953613,0.127018631,610.9953613,0.001750723,610.9953613,-0.000375547,610.9953613,-0.000915605
609.9949341,0.12711966,609.9949341,0.001444923,609.9949341,-0.000485918,609.9949341,-0.000993299
608.9940796,0.126933798,608.9940796,0.001918707,608.9940796,-0.000127599,608.9940796,-0.000687039
607.992981,0.126883045,607.992981,0.002154882,607.992981,-9.31E-05,607.992981,-0.000407151
606.9916382,0.126850039,606.9916382,0.0021643,606.9916382,0.000119144,606.9916382,-0.000537888
605.9900513,0.126762971,605.9900513,0.002212743,605.9900513,0.000155447,605.9900513,-0.000310831
604.9881592,0.126834303,604.9881592,0.002122287,604.9881592,3.86E-05,604.9881592,-0.000304002
603.9859619,0.126936927,603.9859619,0.002355736,603.9859619,0.000129113,603.9859619,-0.000358424
602.9836426,0.12680845,602.9836426,0.002440305,602.9836426,0.000238242,602.9836426,-0.000356873
602.0180664,0.126808822,602.0180664,0.002426249,602.0180664,0.000192013,602.0180664,-0.000336336
601.0151367,0.126782656,601.0151367,0.002364585,601.0151367,8.73E-05,601.0151367,-8.15E-05
600.0119629,0.126668155,600.0119629,0.002315995,600.0119629,0.000168265,600.0119629,-8.08E-05
599.0085449,0.126639277,599.0085449,0.002470633,599.0085449,0.000162827,599.0085449,-0.000235136
598.0047607,0.126606122,598.0047607,0.002283154,598.0047607,0.00033885,598.0047607,-0.000143643
597.0007935,0.12662892,597.0007935,0.002389156,597.0007935,0.000340456,597.0007935,-0.000170555
595.996582,0.126574487,595.996582,0.002572333,595.996582,0.000430257,595.996582,-0.000228772
594.9921265,0.126519725,594.9921265,0.002549497,594.9921265,0.000289787,594.9921265,-4.33E-05
593.9873047,0.12655814,593.9873047,0.002723259,593.9873047,0.000517821,593.9873047,-4.19E-05
592.9822998,0.126471683,592.9822998,0.002629728,592.9822998,0.000468089,592.9822998,-6.99E-05
592.0142212,0.126557693,592.0142212,0.002753842,592.0142212,0.000372296,592.0142212,-8.03E-05
591.0087891,0.126644552,591.0087891,0.002456419,591.0087891,-3.52E-05,591.0087891,-0.00028755
590.0029297,0.126504719,590.0029297,0.002641917,590.0029297,0.000296988,590.0029297,-0.000177024
588.9968262,0.126612738,588.9968262,0.002375361,588.9968262,0.000317452,588.9968262,-0.000202278
587.9905396,0.126539052,587.9905396,0.002473237,587.9905396,0.000259118,587.9905396,-0.000291533
586.9840088,0.126598328,586.9840088,0.00229921,586.9840088,0.000243396,586.9840088,-0.000233894
586.0144653,0.126506493,586.0144653,0.002426353,586.0144653,0.000110884,586.0144653,-0.000292516
585.0073853,0.126349181,585.0073853,0.002521194,585.0073853,0.000450235,585.0073853,-8.20E-05
584.000061,0.126278311,584.000061,0.002537858,584.000061,0.000110884,584.000061,-0.000252367
582.9924927,0.125950992,582.9924927,0.00293097,582.9924927,0.000604962,582.9924927,4.30E-05
581.9846191,0.126241192,581.9846191,0.002507811,581.9846191,0.000309422,581.9846191,-0.00012351
581.013916,0.126026169,581.013916,0.002538353,581.013916,0.000386727,581.013916,-0.000129928
580.0054932,0.12620689,580.0054932,0.002534186,580.0054932,0.000136881,580.0054932,-0.00036308
578.9969482,0.125958592,578.9969482,0.002617879,578.9969482,0.000421758,578.9969482,-9.59E-05
577.9880981,0.125962123,577.9880981,0.002543872,577.9880981,0.000504707,577.9880981,-0.000331111
577.0163574,0.125947982,577.0163574,0.002500938,577.0163574,0.000250571,577.0163574,5.62E-05
576.006958,0.126143694,576.006958,0.002491799,576.006958,0.000314965,576.006958,-0.000385737
574.9973755,0.125855729,574.9973755,0.002601785,574.9973755,0.0002356,574.9973755,-0.000139555
573.9875488,0.125956699,573.9875488,0.002382857,573.9875488,0.000144053,573.9875488,-0.000199069
573.0148926,0.125775039,573.0148926,0.002588478,573.0148926,0.000309603,573.0148926,-0.000204244
572.0045166,0.125802085,572.0045166,0.002516924,572.0045166,0.000217756,572.0045166,-0.000366442
570.9938965,0.125691503,570.9938965,0.002639599,570.9938965,0.000285927,570.9938965,-0.00021537
569.9830322,0.125662208,569.9830322,0.002373851,569.9830322,0.000198461,569.9830322,-0.000180025
569.0093994,0.125539184,569.0093994,0.002384783,569.0093994,0.00027541,569.0093994,-0.000340008
567.9980469,0.125309929,567.9980469,0.002738394,567.9980469,0.000539747,567.9980469,-3.44E-05
566.9864502,0.125371665,566.9864502,0.00241417,566.9864502,0.000325923,566.9864502,-0.00038465
566.0120239,0.125239149,566.0120239,0.002549158,566.0120239,0.000220061,566.0120239,-0.000180957
565,0.125012636,565,0.00279602,565,0.000405253,565,-7.82E-06
563.9876709,0.124968007,563.9876709,0.002501511,563.9876709,0.000284243,563.9876709,-8.49E-05
563.0126343,0.124946229,563.0126343,0.002380046,563.0126343,0.000227416,563.0126343,-0.000455354
561.9997559,0.124512933,561.9997559,0.00261116,561.9997559,0.000569502,561.9997559,-0.000186753
560.9867554,0.124269806,560.9867554,0.002619962,560.9867554,0.000441891,560.9867554,-0.000216146
560.0109863,0.124131359,560.0109863,0.002770645,560.0109863,0.00042466,560.0109863,4.11E-05
558.9974365,0.124005839,558.9974365,0.002515752,558.9974365,0.000121552,558.9974365,-1.18E-05
557.9836426,0.123674959,557.9836426,0.002704739,557.9836426,0.000422924,557.9836426,-5.46E-05
557.0072021,0.123467594,557.0072021,0.002595665,557.0072021,0.000468271,557.0072021,-7.04E-06
555.9928589,0.123386182,555.9928589,0.00266718,555.9928589,0.00040204,555.9928589,-0.000110157
555.0158691,0.123265177,555.0158691,0.002550018,555.0158691,0.000278363,555.0158691,-0.000393133
554.0012207,0.122969143,554.0012207,0.002594077,554.0012207,0.000316286,554.0012207,-0.000278858
552.9862061,0.122675173,552.9862061,0.002561917,552.9862061,0.00041984,552.9862061,-4.70E-05
552.0085449,0.122626387,552.0085449,0.00260991,552.0085449,0.000154101,552.0085449,-0.000244347
550.993042,0.122195736,550.993042,0.002608868,550.993042,0.000205946,550.993042,-6.97E-05
550.0150146,0.121684119,550.0150146,0.002931934,550.0150146,0.000489521,550.0150146,0.00019569
548.9990845,0.121546157,548.9990845,0.002598478,548.9990845,0.000444923,548.9990845,-8.02E-05
547.9829102,0.121176213,547.9829102,0.00243588,547.9829102,0.000292403,547.9829102,-0.000264578
547.0041504,0.120868094,547.0041504,0.002485447,547.0041504,0.00044513,547.0041504,-0.000153891
545.9874878,0.120580971,545.9874878,0.002591238,545.9874878,0.000281031,545.9874878,-4.71E-05
545.0082397,0.120278433,545.0082397,0.002603269,545.0082397,0.000305795,545.0082397,-8.01E-05
543.9910889,0.119839609,543.9910889,0.002553116,543.9910889,0.00034385,543.9910889,-0.000156789
543.0114136,0.11956165,543.0114136,0.0024805,543.0114136,0.000215062,543.0114136,-8.30E-05
541.9938965,0.119039774,541.9938965,0.002498256,541.9938965,0.000371934,541.9938965,-0.000137692
541.0136719,0.118888892,541.0136719,0.002575171,541.0136719,0.000308049,541.0136719,-0.000122423
539.9957275,0.118774921,539.9957275,0.002732507,539.9957275,0.000298905,539.9957275,-7.93E-05
539.0150757,0.118196793,539.0150757,0.002620301,539.0150757,0.000331182,539.0150757,-0.000199483
537.996582,0.117678724,537.996582,0.002520152,537.996582,0.000219335,537.996582,-0.000329455
537.015564,0.11701379,537.015564,0.002564573,537.015564,0.000222884,537.015564,-0.000249986
535.996521,0.116719961,535.996521,0.002668065,535.996521,0.00026764,535.996521,-0.000254798
535.0150757,0.116243735,535.0150757,0.002642359,535.0150757,0.000279063,535.0150757,-0.000266958
533.9956055,0.11553286,533.9956055,0.002462928,533.9956055,0.000331389,533.9956055,-0.000195706
533.0137329,0.11524111,533.0137329,0.002607436,533.0137329,0.000366208,533.0137329,-0.000133033
531.9937744,0.115062393,531.9937744,0.002660278,531.9937744,0.000257331,531.9937744,-0.00010612
531.0114746,0.114288449,531.0114746,0.002763428,531.0114746,0.000374809,531.0114746,-0.000119939
529.9910889,0.113831334,529.9910889,0.002521793,529.9910889,0.000334446,529.9910889,-0.000147318
529.0082397,0.113496512,529.0082397,0.002445043,529.0082397,0.000271318,529.0082397,-0.000130756
527.9874878,0.113358937,527.9874878,0.002816368,527.9874878,0.000312323,527.9874878,-0.00011792
527.0042114,0.113228366,527.0042114,0.002646032,527.0042114,0.000270929,527.0042114,-0.0001911
525.9829712,0.112603314,525.9829712,0.002584077,525.9829712,0.000300692,525.9829712,-0.000115436
524.9992676,0.112441845,524.9992676,0.002726542,524.9992676,0.000252876,524.9992676,-0.000234464
524.0153809,0.112130776,524.0153809,0.002824914,524.0153809,0.0002959,524.0153809,-8.01E-05
522.9934692,0.111790404,522.9934692,0.002642985,522.9934692,0.000302168,522.9934692,-0.000148871
522.0090942,0.111656278,522.0090942,0.002694789,522.0090942,0.000249561,522.0090942,-0.000158756
520.9867554,0.111665919,520.9867554,0.002751054,520.9867554,0.000286445,520.9867554,-0.000156892
520.0020142,0.111687549,520.0020142,0.002603764,520.0020142,0.000231249,520.0020142,-0.000229134
519.0170288,0.111705557,519.0170288,0.002682782,519.0170288,0.000280384,519.0170288,-0.000153528
517.9939575,0.111964896,517.9939575,0.002689397,517.9939575,0.000255103,517.9939575,-0.000144213
517.0085449,0.111946769,517.0085449,0.002778226,517.0085449,0.00033069,517.0085449,-0.00018106
515.9850464,0.112138555,515.9850464,0.002563115,515.9850464,0.000348228,515.9850464,-0.00016657
514.9992676,0.112277851,514.9992676,0.002742901,514.9992676,0.000310795,514.9992676,-0.000100581
514.0131836,0.112585232,514.0131836,0.002632124,514.0131836,0.000185746,514.0131836,-0.000270424
512.9890137,0.113081031,512.9890137,0.002682313,512.9890137,0.00027541,512.9890137,-0.00018106
512.0025635,0.11353191,512.0025635,0.002664523,512.0025635,0.000227157,512.0025635,-0.000224115
511.0158691,0.113711745,511.0158691,0.002777132,511.0158691,0.000325094,511.0158691,-0.00011083
509.9910278,0.1141349,509.9910278,0.002777966,509.9910278,0.000312142,509.9910278,-0.000106378
509.0039063,0.114586033,509.0039063,0.002721749,509.0039063,0.000190692,509.0039063,-0.000121388
508.0166626,0.115103014,508.0166626,0.002807431,508.0166626,0.000217289,508.0166626,-0.000133655
506.9911804,0.11560069,506.9911804,0.00285123,506.9911804,0.000327063,506.9911804,-0.000102082
506.0034485,0.11600367,506.0034485,0.002829812,506.0034485,0.000208665,506.0034485,-0.000159842
505.0155334,0.116452351,505.0155334,0.002776324,505.0155334,0.000329394,505.0155334,-0.000172315
503.9893494,0.117029689,503.9893494,0.002712111,503.9893494,0.000301884,503.9893494,-0.00023436
503.0010071,0.117590241,503.0010071,0.002749726,503.0010071,0.000274426,503.0010071,-0.000192756
502.0124817,0.118099205,502.0124817,0.002679708,502.0124817,0.000235419,502.0124817,-0.000174488
500.9857178,0.118463233,500.9857178,0.00287059,500.9857178,0.000286756,500.9857178,-0.000172211
499.9967346,0.118887872,499.9967346,0.002759208,499.9967346,0.000324369,499.9967346,-0.000185977
499.0075684,0.119354092,499.0075684,0.00279391,499.0075684,0.00038494,499.0075684,-6.89E-05
498.018219,0.120051563,498.018219,0.002586759,498.018219,2.33E-05,498.018219,-0.000283307
496.9905701,0.120371833,496.9905701,0.002834867,496.9905701,0.000357166,496.9905701,-0.000140486
496.000824,0.120632641,496.000824,0.002769394,496.000824,0.000325794,496.000824,-0.000169986
495.0108032,0.121198081,495.0108032,0.002606446,495.0108032,0.000141231,495.0108032,-0.000306382
493.9825134,0.121552765,493.9825134,0.002634651,493.9825134,0.000220786,493.9825134,-0.00037596
492.992157,0.12190479,492.992157,0.002480891,492.992157,0.000217393,492.992157,-0.000222148
492.0015259,0.122159451,492.0015259,0.002554939,492.0015259,0.000244588,492.0015259,-0.000249573
491.0107117,0.122512586,491.0107117,0.002765669,491.0107117,0.000283803,491.0107117,-0.000150941
489.9815979,0.122794122,489.9815979,0.002650824,489.9815979,0.000294579,489.9815979,-0.000217905
488.9904175,0.12282981,488.9904175,0.002606316,488.9904175,0.000261605,488.9904175,-0.000179042
487.9990234,0.123034641,487.9990234,0.002548195,487.9990234,0.000283311,487.9990234,-0.000163051
487.0074158,0.123263456,487.0074158,0.00266856,487.0074158,0.000321079,487.0074158,-0.000132775
486.0155945,0.123656616,486.0155945,0.002651813,486.0155945,0.000219957,486.0155945,-0.000286618
484.9854736,0.123652354,484.9854736,0.002567177,484.9854736,0.000328306,484.9854736,-0.000186442
483.9932556,0.123700291,483.9932556,0.002668248,483.9932556,0.000378747,483.9932556,-0.000113469
483.000885,0.123886801,483.000885,0.002773354,483.000885,0.000210038,483.000885,-0.000269389
482.0083008,0.12387991,482.0083008,0.002949161,482.0083008,0.000363695,482.0083008,-5.57E-05
481.0155334,0.123740353,481.0155334,0.002743109,481.0155334,0.000345715,481.0155334,-0.000227375
479.9842834,0.123466253,479.9842834,0.002809255,479.9842834,0.000461481,479.9842834,-0.000139192
478.9911194,0.123330161,478.9911194,0.002763715,478.9911194,0.000475864,478.9911194,-0.000107724
477.9977112,0.123320602,477.9977112,0.002863816,477.9977112,0.000297169,477.9977112,-0.000112538
477.0041504,0.12317837,477.0041504,0.002831323,477.0041504,0.000393982,477.0041504,-9.61E-05
476.010376,0.122876525,476.010376,0.00279826,476.010376,0.000386831,476.010376,-0.000221527
475.0164185,0.122683995,475.0164185,0.002764679,475.0164185,0.000372737,475.0164185,-0.000152752
473.9840088,0.122585289,473.9840088,0.002882108,473.9840088,0.000326208,473.9840088,-0.000256816
472.9896545,0.122438803,472.9896545,0.002773823,472.9896545,0.000297117,472.9896545,-0.000172522
471.9950867,0.122185655,471.9950867,0.002824262,471.9950867,0.000389137,471.9950867,-0.000168123
471.0003052,0.122016981,471.0003052,0.002855008,471.0003052,0.000360845,471.0003052,-0.000106378
470.0054321,0.12181551,470.0054321,0.002938919,470.0054321,0.000334679,470.0054321,-0.000143385
469.0102844,0.121636368,469.0102844,0.002935192,469.0102844,0.000428443,469.0102844,-0.000101306
468.0149231,0.121629827,468.0149231,0.002741442,468.0149231,0.000366156,468.0149231,-0.000192601
466.9811707,0.121529304,466.9811707,0.002853731,466.9811707,0.000413259,466.9811707,-0.000117558
465.9855042,0.121645756,465.9855042,0.002745089,465.9855042,0.000320897,465.9855042,-0.000224736
464.9895325,0.121726118,464.9895325,0.002728026,464.9895325,0.000294475,464.9895325,-0.000187891
463.9934692,0.122006908,463.9934692,0.002728417,463.9934692,0.000319654,463.9934692,-0.00025723
462.9972229,0.122155614,462.9972229,0.002812173,462.9972229,0.000323825,462.9972229,-0.000151821
462.0007324,0.122467011,462.0007324,0.002777522,462.0007324,0.000355482,462.0007324,-0.000228616
461.0040588,0.122879408,461.0040588,0.002615926,461.0040588,0.000303775,461.0040588,-0.000258213
460.0072327,0.12321467,460.0072327,0.002755275,460.0072327,0.000390562,460.0072327,-0.000161602
459.0102539,0.123845823,459.0102539,0.0028295,459.0102539,0.000377711,459.0102539,-0.000225201
458.0130005,0.124453113,458.0130005,0.002950543,458.0130005,0.000379136,458.0130005,-0.000134897
457.015625,0.125022277,457.015625,0.002856754,457.015625,0.000318825,457.015625,-0.000219251
456.0180359,0.125489324,456.0180359,0.002907828,456.0180359,0.00045661,456.0180359,-0.000100892
454.981842,0.126144275,454.981842,0.002877834,454.981842,0.000309292,454.981842,-0.000176869
453.9838867,0.126716316,453.9838867,0.00283729,453.9838867,0.000414762,453.9838867,-0.000172832
452.9857483,0.127275333,452.9857483,0.002933576,452.9857483,0.000496881,452.9857483,-0.000149233
451.9873657,0.127940193,451.9873657,0.002783671,451.9873657,0.000313981,451.9873657,-0.000187684
450.9888916,0.128479973,450.9888916,0.002783905,450.9888916,0.000358695,450.9888916,-0.000223856
449.9902039,0.128953368,449.9902039,0.002850553,449.9902039,0.000367218,449.9902039,-0.000103894
448.9913025,0.129521981,448.9913025,0.002757385,448.9913025,0.000429427,448.9913025,-0.000182406
447.9922791,0.129926086,447.9922791,0.002891567,447.9922791,0.000565485,447.9922791,-6.70E-05
446.992981,0.130555674,446.992981,0.002789767,446.992981,0.000351492,446.992981,-0.000229444
445.9935913,0.130968615,445.9935913,0.002805269,445.9935913,0.00038354,445.9935913,-0.00018608
444.993988,0.131367356,444.993988,0.002829734,444.993988,0.000395873,444.993988,-0.000153787
443.9941406,0.131754145,443.9941406,0.002856493,443.9941406,0.000407377,443.9941406,-0.000173246
442.9941711,0.132130191,442.9941711,0.00291278,442.9941711,0.00046853,442.9941711,-0.000184786
441.9940186,0.132530451,441.9940186,0.002822126,441.9940186,0.000448602,441.9940186,-0.000132102
440.9937134,0.132846743,440.9937134,0.002881717,440.9937134,0.000453526,440.9937134,-0.000138623
439.9931946,0.133239359,439.9931946,0.002899333,439.9931946,0.000432304,439.9931946,-0.000180388
438.9924927,0.133546516,438.9924927,0.003003035,438.9924927,0.000408051,438.9924927,-9.80E-05
437.9916077,0.133767217,437.9916077,0.003020343,437.9916077,0.000450287,437.9916077,-4.62E-05
436.9906311,0.133909255,436.9906311,0.002989586,436.9906311,0.000478818,436.9906311,-8.54E-06
435.9893188,0.134073868,435.9893188,0.002936573,435.9893188,0.000357399,435.9893188,-0.000103739
434.9879456,0.134091884,434.9879456,0.002936704,434.9879456,0.000517743,434.9879456,-8.28E-07
433.9863892,0.13431035,433.9863892,0.002948979,433.9863892,0.0004769,433.9863892,-6.17E-05
432.9845581,0.134471163,432.9845581,0.002994799,432.9845581,0.000447385,432.9845581,-6.14E-05
431.9826355,0.134580821,431.9826355,0.003074539,431.9826355,0.000505459,431.9826355,0
431.019104,0.134807542,431.019104,0.003103321,431.019104,0.000449561,431.019104,3.09E-05
430.0168457,0.134982914,430.0168457,0.003096021,430.0168457,0.000526348,430.0168457,-1.45E-05
429.0143738,0.135131046,429.0143738,0.003146941,429.0143738,0.000546434,429.0143738,-6.50E-05
428.0117188,0.135296971,428.0117188,0.002999725,428.0117188,0.000547574,428.0117188,8.99E-05
427.0089417,0.135389388,427.0089417,0.003020422,427.0089417,0.000508957,427.0089417,0.000103945
426.0059814,0.135505512,426.0059814,0.003152287,426.0059814,0.000607295,426.0059814,0.000125979
425.0028076,0.135614052,425.0028076,0.003181152,425.0028076,0.00063861,425.0028076,0.000185668
423.9994812,0.135778427,423.9994812,0.003223398,423.9994812,0.000597237,423.9994812,0.000166375
422.9960022,0.135920748,422.9960022,0.003288913,422.9960022,0.000675139,422.9960022,0.000257979
421.9923096,0.136084572,421.9923096,0.003214375,421.9923096,0.000676435,421.9923096,0.000289087
420.9884644,0.13618657,420.9884644,0.003266665,420.9884644,0.000646465,420.9884644,0.000337373
419.9844971,0.136423796,419.9844971,0.003291886,419.9844971,0.000699173,419.9844971,0.00028989
419.0189514,0.136498302,419.0189514,0.00335462,419.0189514,0.000786143,419.0189514,0.000443938
418.0145569,0.136700422,418.0145569,0.003347942,418.0145569,0.000684576,418.0145569,0.000306546
417.0100098,0.136802599,417.0100098,0.003396596,417.0100098,0.000810754,417.0100098,0.000363539
416.0053101,0.136928543,416.0053101,0.003408858,416.0053101,0.00089287,416.0053101,0.000497269
415.0004883,0.137143865,415.0004883,0.003479098,415.0004883,0.000896112,415.0004883,0.000561597
413.9955139,0.136945322,413.9955139,0.003622665,413.9955139,0.000971343,413.9955139,0.000710504
412.9902649,0.137368053,412.9902649,0.003593014,412.9902649,0.000972848,412.9902649,0.000612661
411.9848938,0.137469575,411.9848938,0.003660751,411.9848938,0.001031174,411.9848938,0.000830932
411.0181274,0.137667924,411.0181274,0.003608988,411.0181274,0.001030577,411.0181274,0.000779738
410.0123596,0.13758561,410.0123596,0.003742232,410.0123596,0.001085875,410.0123596,0.000922468
409.0065613,0.137834489,409.0065613,0.00372547,409.0065613,0.001107856,409.0065613,0.000860188
408.0004883,0.138158694,408.0004883,0.003690094,408.0004883,0.001214532,408.0004883,0.000979594
406.9942932,0.13834326,406.9942932,0.003770537,406.9942932,0.00117448,406.9942932,0.001092155
405.9879761,0.138407871,405.9879761,0.003949047,405.9879761,0.001356132,405.9879761,0.001369584
404.9814453,0.138476268,404.9814453,0.004023816,404.9814453,0.001393734,404.9814453,0.001433651
404.0134888,0.138586283,404.0134888,0.004105261,404.0134888,0.001416614,404.0134888,0.001507416
403.0066528,0.13878499,403.0066528,0.004078686,403.0066528,0.001409861,403.0066528,0.001525626
401.9996338,0.138667777,401.9996338,0.004303882,401.9996338,0.001508741,401.9996338,0.001740327
400.9924927,0.138785631,400.9924927,0.004395682,400.9924927,0.001637705,400.9924927,0.001958801
399.9851379,0.139129803,399.9851379,0.004469822,399.9851379,0.001756207,399.9851379,0.00206873
399.0163574,0.139039159,399.0163574,0.004529901,399.0163574,0.001717301,399.0163574,0.002274645
398.0087585,0.139107019,398.0087585,0.004659033,398.0087585,0.001968553,398.0087585,0.002334082
397.0009155,0.139655516,397.0009155,0.00470281,397.0009155,0.001955993,397.0009155,0.002567828
395.9929199,0.139838398,395.9929199,0.00468028,395.9929199,0.002073516,395.9929199,0.002738394
394.9848022,0.140056193,394.9848022,0.004869347,394.9848022,0.002329294,394.9848022,0.003078997
394.0153198,0.140263408,394.0153198,0.00511892,394.0153198,0.002436427,394.0153198,0.003141231
393.0068359,0.140450195,393.0068359,0.005291775,393.0068359,0.002554262,393.0068359,0.003434061
391.99823,0.14075245,391.99823,0.005295103,391.99823,0.002747017,391.99823,0.003713304
390.9894714,0.140996322,390.9894714,0.005488869,390.9894714,0.002761579,390.9894714,0.003869328
390.0193176,0.141243905,390.0193176,0.005687311,390.0193176,0.002909757,390.0193176,0.004188394
389.0102539,0.141509265,389.0102539,0.00596176,389.0102539,0.003059784,389.0102539,0.004494224
388.0010071,0.141853675,388.0010071,0.006033622,388.0010071,0.003263822,388.0010071,0.004970851
386.9916077,0.141833678,386.9916077,0.006340728,386.9916077,0.003538622,386.9916077,0.00518239
385.9820557,0.142581135,385.9820557,0.006443495,385.9820557,0.003644096,385.9820557,0.005570406
385.0112,0.143046022,385.0112,0.006705436,385.0112,0.003949987,385.0112,0.005933339
384.0012817,0.14336355,384.0012817,0.006976979,384.0012817,0.004153607,384.0012817,0.006210386
382.9913025,0.144010812,382.9913025,0.007332323,382.9913025,0.004244879,382.9913025,0.00674148
381.9811096,0.144977972,381.9811096,0.007330586,381.9811096,0.004339152,381.9811096,0.0069653
381.009613,0.145701185,381.009613,0.007635844,381.009613,0.00468554,381.009613,0.007245875
379.9991455,0.146973178,379.9991455,0.007902434,379.9991455,0.004964488,379.9991455,0.007680502
378.9885254,0.148260489,378.9885254,0.008145843,378.9885254,0.00530092,378.9885254,0.008131732
378.0166016,0.149488255,378.0166016,0.008270251,378.0166016,0.005400611,378.0166016,0.00849589
377.0056763,0.150465474,377.0056763,0.008855333,377.0056763,0.005775942,377.0056763,0.009184402
375.9945679,0.151492924,375.9945679,0.009157488,375.9945679,0.005854673,375.9945679,0.009567094
374.9833069,0.153013438,374.9833069,0.009501392,374.9833069,0.006306714,374.9833069,0.010019018
374.0108337,0.154235214,374.0108337,0.009990621,374.0108337,0.006718003,374.0108337,0.010684349
372.9992981,0.155449688,372.9992981,0.010335663,372.9992981,0.006935892,372.9992981,0.01128279
371.9875793,0.156854674,371.9875793,0.010485838,371.9875793,0.007205105,371.9875793,0.011873038
371.014679,0.158071593,371.014679,0.01088088,371.014679,0.007562796,371.014679,0.012429858
370.002655,0.159504205,370.002655,0.011294081,370.002655,0.008039613,370.002655,0.012984619
368.9905396,0.161100224,368.9905396,0.011576776,368.9905396,0.008360413,368.9905396,0.013655876
368.0171814,0.162376851,368.0171814,0.011850531,368.0171814,0.008587973,368.0171814,0.014390887
367.0047607,0.164018318,367.0047607,0.012163324,367.0047607,0.008735775,367.0047607,0.014891365
365.992157,0.16584219,365.992157,0.012494192,365.992157,0.009285015,365.992157,0.015497726
365.0183716,0.167614698,365.0183716,0.012820487,365.0183716,0.009600624,365.0183716,0.01616681
364.0054932,0.169445455,364.0054932,0.013255928,364.0054932,0.010012899,364.0054932,0.016976416
362.9924622,0.171476454,362.9924622,0.013395076,362.9924622,0.010392371,362.9924622,0.017565455
362.01828,0.172865316,362.01828,0.01410023,362.01828,0.010696872,362.01828,0.018225882
361.0049438,0.17479369,361.0049438,0.014597294,361.0049438,0.011195817,361.0049438,0.019037584
359.9914856,0.177053288,359.9914856,0.014998266,359.9914856,0.011406133,359.9914856,0.019573262
359.0168762,0.179525897,359.0168762,0.015086378,359.0168762,0.011779058,359.0168762,0.020226661
358.0031128,0.181271434,358.0031128,0.015711585,358.0031128,0.012291685,358.0031128,0.021148285
356.9892273,0.183217704,356.9892273,0.016215093,356.9892273,0.012610259,356.9892273,0.021824829
356.0141907,0.185256884,356.0141907,0.016666621,356.0141907,0.013052531,356.0141907,0.022329755
355.0000305,0.187459335,355.0000305,0.017112697,355.0000305,0.013489967,355.0000305,0.023217324
353.9856873,0.189231277,353.9856873,0.017416343,353.9856873,0.013766935,353.9856873,0.023812763
353.0102539,0.191239119,353.0102539,0.017837269,353.0102539,0.013966123,353.0102539,0.024466526
351.995636,0.193606451,351.995636,0.017974628,351.995636,0.014362283,351.995636,0.024956301
350.980896,0.195867047,350.980896,0.018437957,350.980896,0.014719092,350.980896,0.02564746
350.0050659,0.198389694,350.0050659,0.018698046,350.0050659,0.014871675,350.0050659,0.026052089
348.9899902,0.201190397,348.9899902,0.019137964,348.9899902,0.015264212,348.9899902,0.026694948
348.0138855,0.204247028,348.0138855,0.01949352,348.0138855,0.015523266,348.0138855,0.027376667
346.9985352,0.207689524,346.9985352,0.019882862,346.9985352,0.016009768,346.9985352,0.028093422
345.9830933,0.211648926,345.9830933,0.020120364,345.9830933,0.016200664,345.9830933,0.028484389
345.0065918,0.216092393,345.0065918,0.020725876,345.0065918,0.016699279,345.0065918,0.029203255
343.9908447,0.221037105,343.9908447,0.02104312,343.9908447,0.016699331,343.9908447,0.029508524
343.0140686,0.226557985,343.0140686,0.021137767,343.0140686,0.017107768,343.0140686,0.029638955
341.9980774,0.233282045,341.9980774,0.021505384,341.9980774,0.017403975,341.9980774,0.030320151
340.9819336,0.24125734,340.9819336,0.021601493,340.9819336,0.017539958,340.9819336,0.030579681
340.0047607,0.251561701,340.0047607,0.021496462,340.0047607,0.017628292,340.0047607,0.030654289
338.9883728,0.262828082,338.9883728,0.02128664,338.9883728,0.017805982,338.9883728,0.031028191
338.0108948,0.273858964,338.0108948,0.02140916,338.0108948,0.017618667,338.0108948,0.03080296
336.9942017,0.288078398,336.9942017,0.021617191,336.9942017,0.017733118,336.9942017,0.030761806
336.01651,0.305154592,336.01651,0.021772543,336.01651,0.017737027,336.01651,0.031322334
334.9995728,0.327312976,334.9995728,0.022013178,334.9995728,0.017406724,334.9995728,0.031348653
333.9824829,0.353303492,333.9824829,0.02181465,333.9824829,0.017294541,333.9824829,0.030876134
333.0043945,0.376233727,333.0043945,0.022243323,333.0043945,0.017336,333.0043945,0.031500097
331.98703,0.408017784,331.98703,0.021452619,331.98703,0.016225707,331.98703,0.030163154
331.0086975,0.444497377,331.0086975,0.021504622,331.0086975,0.016813783,331.0086975,0.030845229
329.9910889,0.488987804,329.9910889,0.021414436,329.9910889,0.018865686,329.9910889,0.031262215
329.0124512,0.537898362,329.0124512,0.019971726,329.0124512,0.018080212,329.0124512,0.030106386
327.9945679,0.588088095,327.9945679,0.019955438,327.9945679,0.019210469,327.9945679,0.030745108
327.0157471,0.644906223,327.0157471,0.018217083,327.0157471,0.016638728,327.0157471,0.027389955
325.9975891,0.703541338,325.9975891,0.018379729,325.9975891,0.020460771,325.9975891,0.027756365
325.0184937,0.779189706,325.0184937,0.019801112,325.0184937,0.022253076,325.0184937,0.026767956
324.000061,0.852852941,324.000061,0.016727498,324.000061,0.020732312,324.000061,0.026014654
322.9815674,0.925066114,322.9815674,0.016793629,322.9815674,0.020233875,322.9815674,0.028864395
322.0020752,1.003431797,322.0020752,0.016887462,322.0020752,0.021327233,322.0020752,0.028376384
320.9833069,1.09699893,320.9833069,0.013815835,320.9833069,0.017963998,320.9833069,0.025274016
320.00354,1.197335243,320.00354,0.013995769,320.00354,0.019010836,320.00354,0.022196352
318.9845276,1.298037171,318.9845276,0.015798368,318.9845276,0.020419421,318.9845276,0.024225403
318.0045471,1.392482758,318.0045471,0.017800508,318.0045471,0.020849921,318.0045471,0.022398898
316.98526,1.496119261,316.98526,0.020359652,316.98526,0.021878975,316.98526,0.022271823
316.0050049,1.603706837,316.0050049,0.020659687,316.0050049,0.023666628,316.0050049,0.019600965
314.9854431,1.713972092,314.9854431,0.019200457,314.9854431,0.023015432,314.9854431,0.023266317
314.0049744,1.811093926,314.0049744,0.020633409,314.0049744,0.024269143,314.0049744,0.02242313
312.9852295,1.910001874,312.9852295,0.025049118,312.9852295,0.023618439,312.9852295,0.024577865
312.0045166,1.999543428,312.0045166,0.021222757,312.0045166,0.021772407,312.0045166,0.02744044
310.984436,2.086654663,310.984436,0.022533428,310.984436,0.025655726,310.984436,0.028267492
310.003479,2.180988073,310.003479,0.014947115,310.003479,0.01928691,310.003479,0.022403151
308.9832153,2.260972738,308.9832153,0.017568152,308.9832153,0.022206567,308.9832153,0.022688974
308.0020447,2.321783066,308.0020447,0.019207086,308.0020447,0.02805849,308.0020447,0.018704019
306.9814758,2.387194633,306.9814758,0.016925868,306.9814758,0.021905191,306.9814758,0.018738234
306.000061,2.432933807,306.000061,0.022096053,306.000061,0.030673262,306.000061,0.026690708
305.0185547,2.502840996,305.0185547,0.011664251,305.0185547,0.019826174,305.0185547,0.021031708
303.9976501,2.552819014,303.9976501,0.017111834,303.9976501,0.026303662,303.9976501,0.019833518
303.0158691,2.594872236,303.0158691,0.021795187,303.0158691,0.022611793,303.0158691,0.018211305
301.9946899,2.620289564,301.9946899,0.026231501,301.9946899,0.030435611,301.9946899,0.025173087
301.0127258,2.651365757,301.0127258,0.034919344,301.0127258,0.030249208,301.0127258,0.030026823
299.9913635,2.695357084,299.9913635,0.015840193,299.9913635,0.031487741,299.9913635,0.021157743
299.0091248,2.723214865,299.0091248,0.017911445,299.0091248,0.028029939,299.0091248,0.026874213
297.9874573,2.755028248,297.9874573,0.028102949,297.9874573,0.039979815,297.9874573,0.025348159
297.0050049,2.801409721,297.0050049,0.017103165,297.0050049,0.02848967,297.0050049,0.029012399
295.9831238,2.862463951,295.9831238,0.010274961,295.9831238,0.027389597,295.9831238,0.027252369
295.0004272,2.952024221,295.0004272,0.009774503,295.0004272,0.014282905,295.0004272,0.006737405
294.0176392,3.027032614,294.0176392,0.029017048,294.0176392,0.02944378,294.0176392,0.029978754
292.9954529,3.108408689,292.9954529,0.002604728,292.9954529,0.043729305,292.9954529,0.008524346
292.0124512,3.184016228,292.0124512,-0.01022479,292.0124512,0.003669183,292.0124512,0.03766375
290.9899597,3.172504663,290.9899597,0.0055676,290.9899597,0.013952302,290.9899597,0.008447796
290.0067139,3.122645617,290.0067139,0.032243602,290.0067139,0.044234313,290.0067139,0.034072034
288.9840393,3.162715435,288.9840393,-0.004356481,288.9840393,0.017167442,288.9840393,0.018872662
288.0006104,3.223393917,288.0006104,-0.014843234,288.0006104,0.025367038,288.0006104,0.057379637
287.0170288,3.313301325,287.0170288,0.0042963,287.0170288,-0.000820276,287.0170288,0.030707989
285.993988,3.412606955,285.993988,0.050764065,285.993988,0.082426406,285.993988,0.058174547
285.0101929,3.657551289,285.0101929,0.008097235,285.0101929,-0.047408577,285.0101929,0.00948819
283.986969,3.722826242,283.986969,0.012154619,283.986969,0.083758943,283.986969,0.055166628
283.0029297,4.036264896,283.0029297,-0.135555536,283.0029297,-0.056197174,283.0029297,-0.103492975
282.0188293,3.99651289,282.0188293,0.087126292,282.0188293,0.141716898,282.0188293,-0.003697249
280.9952087,4.150762558,280.9952087,-0.020511525,280.9952087,-0.156131238,280.9952087,-0.088509709
280.0108948,4.245009899,280.0108948,-0.047472768,280.0108948,-0.174098313,280.0108948,-0.173273549
278.9870911,4.126928329,278.9870911,0.054286201,278.9870911,-0.153876245,278.9870911,-0.00827789
278.0025635,3.963896275,278.0025635,0.170877919,278.0025635,0.322460055,278.0025635,0.322976351
277.0178833,4.192659378,277.0178833,-0.083497114,277.0178833,-0.175846487,277.0178833,-0.064350136
275.9937134,4.169357777,275.9937134,-0.082070045,275.9937134,0.119803719,275.9937134,-0.106845826
275.0088806,4.65127039,275.0088806,-0.300320983,275.0088806,-0.667685151,275.0088806,0.400474399
273.9844666,4.223515034,273.9844666,0.404306442,273.9844666,-0.223471552,273.9844666,-0.121295765
272.9993896,4.086382866,272.9993896,0.297592312,272.9993896,0.283836961,272.9993896,0.037647378
272.0142517,4.406558514,272.0142517,-0.152498797,272.0142517,-0.08650995,272.0142517,0.365461171
270.989563,4.029170513,270.989563,0.123513691,270.989563,0.091500469,270.989563,0.40309
270.0041504,4.041913033,270.0041504,0.418625772,270.0041504,0.03601677,270.0041504,0.238589376
269.0186768,4.207592964,269.0186768,0.259863377,269.0186768,0.163809151,269.0186768,-0.039432712
267.9936523,4.484525681,267.9936523,-0.211095363,267.9936523,-0.138347194,267.9936523,-0.244949311
267.0079651,4.224325657,267.0079651,0.090061665,267.0079651,-0.213121474,267.0079651,0.078436226
265.9827576,4.04815197,265.9827576,0.26260668,265.9827576,0.065858044,265.9827576,0.150406033
264.9968567,4.146231651,264.9968567,0.042305358,264.9968567,0.09054926,264.9968567,0.02950603
264.0108643,4.157717228,264.0108643,-0.103188582,264.0108643,0.018385455,264.0108643,0.413342834
262.9852905,3.934659958,262.9852905,0.061288871,262.9852905,-0.030127034,262.9852905,-0.0565507
261.999115,3.898819685,261.999115,0.052347831,261.999115,0.161396444,261.999115,0.067653775
261.0127869,4.246881962,261.0127869,-0.055764593,261.0127869,-0.150499687,261.0127869,-0.121018723
259.986969,4.183747292,259.986969,0.058452282,259.986969,-0.018254716,259.986969,0.030630454
259.0004883,4.477314949,259.0004883,-0.153506175,259.0004883,-0.203538984,259.0004883,0.203114614
258.013855,4.281962872,258.013855,-0.028432768,258.013855,-0.098522425,258.013855,-0.098690256
256.9877014,4.4402318,256.9877014,-0.084200859,256.9877014,0.052655876,256.9877014,0.051017679
256.0009155,4.101892471,256.0009155,0.042582031,256.0009155,0.158633962,256.0009155,0.746612668
255.0140076,4.417984009,255.0140076,-0.098636545,255.0140076,0.011542005,255.0140076,0.746612668
253.9875793,4.023785591,253.9875793,0.349994302,253.9875793,0.210285127,253.9875793,0.402584881
253.0005035,4.332707882,253.0005035,0.236465856,253.0005035,-0.013199566,253.0005035,0.282391042
252.0133057,4.277783871,252.0133057,0.443748623,252.0133057,0.058193903,252.0133057,0.010862805
250.9865265,4.007013321,250.9865265,0.342655361,250.9865265,0.088304199,250.9865265,-0.062577136
249.999176,4.141755581,249.999176,0.005431226,249.999176,-0.140614972,249.999176,-0.115858413
249.0116882,3.977516174,249.0116882,0.009286655,249.0116882,0.002795004,249.0116882,-0.027259057
247.9846191,4.045464993,247.9846191,0.066184081,247.9846191,-0.078138575,247.9846191,-0.069088258
246.9969635,4.17417717,246.9969635,0.078313969,246.9969635,0.026563773,246.9969635,0.026778031
246.009201,4.04034996,246.009201,0.022335479,246.009201,-0.051839236,246.009201,0.011122353
244.9818573,3.799077034,244.9818573,-0.019592511,244.9818573,-0.001987629,244.9818573,0.015059524
243.993927,3.867092133,243.993927,-0.013415568,243.993927,-0.024549264,243.993927,0.048936546
243.0058746,3.981681347,243.0058746,-0.010228532,243.0058746,0.023579327,243.0058746,0.005605778
242.0177612,3.952766657,242.0177612,0.068233319,242.0177612,-0.069683008,242.0177612,0.061535794
240.9900208,3.992060184,240.9900208,0.063944347,240.9900208,-0.068215229,240.9900208,0.020424277
240.001709,3.850335121,240.001709,-0.078859381,240.001709,-0.012271827,240.001709,0.159032464
239.0133209,3.92663455,239.0133209,-0.146465078,239.0133209,-0.174485475,239.0133209,-0.040384512
237.9853058,3.786051035,237.9853058,0.124820299,237.9853058,0.055296678,237.9853058,0.032964144
236.9967041,3.923835516,236.9967041,-0.052123826,236.9967041,0.0159212,236.9967041,-0.015700243
236.0080566,4.063378811,236.0080566,-0.066741534,236.0080566,-0.050150767,236.0080566,-0.067730278
235.0192871,4.167754173,235.0192871,-0.02709512,235.0192871,0.06853132,235.0192871,0.008355927
233.99086,4.132876396,233.99086,0.11231406,233.99086,-0.08568076,233.99086,0.221806884
233.0019379,4.203237057,233.0019379,0.054100242,233.0019379,0.060230795,233.0019379,-0.361605436
232.0129089,4.618667603,232.0129089,0.120714739,232.0129089,-0.540179789,232.0129089,-0.180030435
230.9842377,4.171482563,230.9842377,0.039064437,230.9842377,-0.09241724,230.9842377,-0.086946882
229.9950562,4.246684551,229.9950562,-0.104062453,229.9950562,0.262238056,229.9950562,-0.034434546
229.0057373,4.634192944,229.0057373,-0.574222565,229.0057373,-0.179936141,229.0057373,-0.207586139
228.0163879,4.104551315,228.0163879,-0.077676587,228.0163879,-0.059662737,228.0163879,-0.101416059
226.9873352,4.117929459,226.9873352,-0.005741748,226.9873352,-0.080855057,226.9873352,-0.070904724
225.997757,4.009836674,225.997757,0.030683097,225.997757,-0.044392847,225.997757,-0.022008967
225.0081329,3.973056316,225.0081329,0.045451351,225.0081329,-0.058019552,225.0081329,0.027720245
224.0184174,4.108203411,224.0184174,0.078695387,224.0184174,-0.001641997,224.0184174,-0.164360285
222.9890289,4.026081085,222.9890289,0.020636505,222.9890289,-0.016816076,222.9890289,-0.001134807
221.999115,4.103939056,221.999115,0.011231571,221.999115,-0.033207763,221.999115,-0.147571728
221.0091553,4.140585899,221.0091553,-0.181133598,221.0091553,-0.240687847,221.0091553,-0.21799013
220.0190887,4.12955761,220.0190887,-0.208617985,220.0190887,-0.212045699,220.0190887,-0.064441733
218.9893494,3.942256212,218.9893494,0.132091761,218.9893494,0.220654234,218.9893494,0.024163576
217.9990997,3.941349983,217.9990997,0.016255589,217.9990997,0.039204288,217.9990997,0.154734626
217.0088043,4.107326984,217.0088043,-0.249335066,217.0088043,-0.249353901,217.0088043,-0.211946175
216.0184021,3.873461962,216.0184021,0.041513536,216.0184021,-0.02157907,216.0184021,0.070279732
214.988327,3.950721025,214.988327,0.169238925,214.988327,-0.068233855,214.988327,0.239366368
213.997757,3.879386187,213.997757,-0.083484299,213.997757,0.23027578,213.997757,0.046860639
213.0071411,3.96862483,213.0071411,-0.103928439,213.0071411,-0.056628779,213.0071411,-0.034800924
212.0164032,4.001338482,212.0164032,-0.044195645,212.0164032,-0.13615872,212.0164032,-0.191352636
210.9859924,3.906781197,210.9859924,-0.206346393,210.9859924,0.009354836,210.9859924,-0.102689192
209.9951019,3.958820581,209.9951019,-0.054810669,209.9951019,-0.058795035,209.9951019,-0.117823027
209.0041504,3.903860092,209.0041504,0.041798282,209.0041504,-0.097562388,209.0041504,-0.092576943
208.013092,4.054047585,208.013092,-0.094487466,208.013092,-0.097892813,208.013092,-0.170687929
206.9823608,3.928399324,206.9823608,0.031246109,206.9823608,0.182870179,206.9823608,0.003388925
205.9911499,4.065496922,205.9911499,0.132099837,205.9911499,-0.17140089,205.9911499,-0.061721664
204.9998932,3.998706341,204.9998932,-0.010652581,204.9998932,0.121847764,204.9998932,-0.026088748
204.0085297,4.133199215,204.0085297,-0.130556375,204.0085297,-0.031680696,204.0085297,-0.255620241
203.0171051,3.922961473,203.0171051,-0.131206036,203.0171051,0.024739925,203.0171051,-0.022426935
201.9859467,3.968128681,201.9859467,0.085508592,201.9859467,-0.033368114,201.9859467,-0.100515887
200.9943695,3.858882427,200.9943695,0.080678098,200.9943695,-0.00964951,200.9943695,-0.029075284
200.0027008,4.151815414,200.0027008,-0.319943041,200.0027008,-0.370214999,200.0027008,-0.273451418
,,,,,,,
Baseline 100%T,,,,,,,
Baseline 100%T,,,,,,,
Collection Time: 3/24/2026 3:49:32 PM,,,,,,,
Operator Name  :,,,,,,,
Scan Version 5.3.0.1079,,,,,,,
Parameter List :,,,,,,,
Instrument  Cary 60,,,,,,,
Instrument Version  2.00,,,,,,,
Start (nm)  800.0,,,,,,,
Stop (nm)  200.0,,,,,,,
X Mode  Nanometers,,,,,,,
Y Mode  Abs,,,,,,,
UV-Vis Scan Rate (nm/min)  600.000,,,,,,,
UV-Vis Data Interval (nm)  1.00,,,,,,,
UV-Vis Ave. Time (sec)  0.1000,,,,,,,
Beam Mode  Dual Beam,,,,,,,
Baseline Correction  On,,,,,,,
Baseline Type  Baseline correction,,,,,,,
Baseline File Name,,,,,,,
Baseline Std Ref File Name,,,,,,,
Cycle Mode  Off,,,,,,,
Method Log     :,,,,,,,
Method Name    :,,,,,,,
Date/Time stamp: 3/24/2026 2:33:05 PM,,,,,,,
Method Modifications:,,,,,,,
UVVIS SAT Changed: 3/24/2026 3:47:51 PM, Old:0.0125, New:0.1000,,,,,
Common SAT Changed: 3/24/2026 3:47:51 PM, Old:0.0125, New:0.1000,,,,,
Common Interval nm Changed: 3/24/2026 3:47:55 PM, Old:     5.00, New:     1.00,,,,,
Baseline Correction Changed: 3/24/2026 3:47:55 PM, Old:0, New:1,,,,,
End Method Modifications,,,,,,,
<Current Wavelength> ,200,,,,,,
,,,,,,,
R1 sulfuric + ferric1,,,,,,,
R1 sulfuric + ferric1,,,,,,,
Collection Time: 3/24/2026 3:54:08 PM,,,,,,,
Operator Name  :,,,,,,,
Scan Version 5.3.0.1079,,,,,,,
Parameter List :,,,,,,,
Instrument  Cary 60,,,,,,,
Instrument Version  2.00,,,,,,,
Start (nm)  800.0,,,,,,,
Stop (nm)  200.0,,,,,,,
X Mode  Nanometers,,,,,,,
Y Mode  Abs,,,,,,,
UV-Vis Scan Rate (nm/min)  600.000,,,,,,,
UV-Vis Data Interval (nm)  1.00,,,,,,,
UV-Vis Ave. Time (sec)  0.1000,,,,,,,
Beam Mode  Dual Beam,,,,,,,
Baseline Correction  On,,,,,,,
Baseline Type  Baseline correction,,,,,,,
Baseline File Name,,,,,,,
Baseline Std Ref File Name,,,,,,,
Cycle Mode  Off,,,,,,,
Method Log     :,,,,,,,
Method Name    :,,,,,,,
Date/Time stamp: 3/24/2026 2:33:05 PM,,,,,,,
Method Modifications:,,,,,,,
UVVIS SAT Changed: 3/24/2026 3:47:51 PM, Old:0.0125, New:0.1000,,,,,
Common SAT Changed: 3/24/2026 3:47:51 PM, Old:0.0125, New:0.1000,,,,,
Common Interval nm Changed: 3/24/2026 3:47:55 PM, Old:     5.00, New:     1.00,,,,,
Baseline Correction Changed: 3/24/2026 3:47:55 PM, Old:0, New:1,,,,,
End Method Modifications,,,,,,,
<Current Wavelength> ,201,,,,,,
,,,,,,,
R2 sulfuric + ferric,,,,,,,
R2 sulfuric + ferric,,,,,,,
Collection Time: 3/24/2026 3:59:04 PM,,,,,,,
Operator Name  :,,,,,,,
Scan Version 5.3.0.1079,,,,,,,
Parameter List :,,,,,,,
Instrument  Cary 60,,,,,,,
Instrument Version  2.00,,,,,,,
Start (nm)  800.0,,,,,,,
Stop (nm)  200.0,,,,,,,
X Mode  Nanometers,,,,,,,
Y Mode  Abs,,,,,,,
UV-Vis Scan Rate (nm/min)  600.000,,,,,,,
UV-Vis Data Interval (nm)  1.00,,,,,,,
UV-Vis Ave. Time (sec)  0.1000,,,,,,,
Beam Mode  Dual Beam,,,,,,,
Baseline Correction  On,,,,,,,
Baseline Type  Baseline correction,,,,,,,
Baseline File Name,,,,,,,
Baseline Std Ref File Name,,,,,,,
Cycle Mode  Off,,,,,,,
Method Log     :,,,,,,,
Method Name    :,,,,,,,
Date/Time stamp: 3/24/2026 2:33:05 PM,,,,,,,
Method Modifications:,,,,,,,
UVVIS SAT Changed: 3/24/2026 3:47:51 PM, Old:0.0125, New:0.1000,,,,,
Common SAT Changed: 3/24/2026 3:47:51 PM, Old:0.0125, New:0.1000,,,,,
Common Interval nm Changed: 3/24/2026 3:47:55 PM, Old:     5.00, New:     1.00,,,,,
Baseline Correction Changed: 3/24/2026 3:47:55 PM, Old:0, New:1,,,,,
End Method Modifications,,,,,,,
<Current Wavelength> ,201,,,,,,
,,,,,,,
R3 sulfuric + ferric,,,,,,,
R3 sulfuric + ferric,,,,,,,
Collection Time: 3/24/2026 4:00:31 PM,,,,,,,
Operator Name  :,,,,,,,
Scan Version 5.3.0.1079,,,,,,,
Parameter List :,,,,,,,
Instrument  Cary 60,,,,,,,
Instrument Version  2.00,,,,,,,
Start (nm)  800.0,,,,,,,
Stop (nm)  200.0,,,,,,,
X Mode  Nanometers,,,,,,,
Y Mode  Abs,,,,,,,
UV-Vis Scan Rate (nm/min)  600.000,,,,,,,
UV-Vis Data Interval (nm)  1.00,,,,,,,
UV-Vis Ave. Time (sec)  0.1000,,,,,,,
Beam Mode  Dual Beam,,,,,,,
Baseline Correction  On,,,,,,,
Baseline Type  Baseline correction,,,,,,,
Baseline File Name,,,,,,,
Baseline Std Ref File Name,,,,,,,
Cycle Mode  Off,,,,,,,
Method Log     :,,,,,,,
Method Name    :,,,,,,,
Date/Time stamp: 3/24/2026 2:33:05 PM,,,,,,,
Method Modifications:,,,,,,,
UVVIS SAT Changed: 3/24/2026 3:47:51 PM, Old:0.0125, New:0.1000,,,,,
Common SAT Changed: 3/24/2026 3:47:51 PM, Old:0.0125, New:0.1000,,,,,
Common Interval nm Changed: 3/24/2026 3:47:55 PM, Old:     5.00, New:     1.00,,,,,
Baseline Correction Changed: 3/24/2026 3:47:55 PM, Old:0, New:1,,,,,
End Method Modifications,,,,,,,
<Current Wavelength> ,205,,,,,,
